% Time (s), ECG_DATA[17:0], ETAG[2:0], PTAG[2:0], ECG (mV), ECG Filtered (mV), Filter Type, LDOFF_PH, LDOFF_PL, LDOFF_NH, LDOFF_NL
0, 0, 0, 7, 0, 0, None, 
0.001953125, 0, 0, 7, 0, 0, None, 
0.00390625, 0, 0, 7, 0, 0, None, 
0.005859375, -2, 0, 7, -0.000762939453125, -0.000762939453125, None, 
0.0078125, -5, 0, 7, -0.0019073486328125, -0.0019073486328125, None, 
0.009765625, -4, 0, 7, -0.00152587890625, -0.00152587890625, None, 
0.01171875, -7, 0, 7, -0.0026702880859375, -0.0026702880859375, None, 
0.013671875, -7, 0, 7, -0.0026702880859375, -0.0026702880859375, None, 
0.015625, -9, 0, 7, -0.0034332275390625, -0.0034332275390625, None, 
0.017578125, -18, 0, 7, -0.006866455078125, -0.006866455078125, None, 
0.01953125, 20, 0, 7, 0.00762939453125, 0.00762939453125, None, 
0.021484375, 77, 0, 7, 0.0293731689453125, 0.0293731689453125, None, 
0.0234375, 62, 0, 7, 0.023651123046875, 0.023651123046875, None, 
0.025390625, -22, 0, 7, -0.008392333984375, -0.008392333984375, None, 
0.02734375, -177, 0, 7, -0.0675201416015625, -0.0675201416015625, None, 
0.029296875, -416, 2, 7, -0.15869140625, -0.15869140625, None, 
0.03125, -706, 0, 7, -0.269317626953125, -0.269317626953125, None, 
0.033203125, -1007, 0, 7, -0.384140014648438, -0.384140014648438, None, 
0.03515625, -1273, 0, 7, -0.485610961914063, -0.485610961914063, None, 
0.037109375, -1465, 0, 7, -0.558853149414063, -0.558853149414063, None, 
0.0390625, -1575, 0, 7, -0.600814819335938, -0.600814819335938, None, 
0.041015625, -1621, 0, 7, -0.618362426757813, -0.618362426757813, None, 
0.04296875, -1576, 0, 7, -0.6011962890625, -0.6011962890625, None, 
0.044921875, -1510, 0, 7, -0.576019287109375, -0.576019287109375, None, 
0.046875, -1493, 0, 7, -0.569534301757813, -0.569534301757813, None, 
0.048828125, -1472, 0, 7, -0.5615234375, -0.5615234375, None, 
0.05078125, -1442, 0, 7, -0.550079345703125, -0.550079345703125, None, 
0.052734375, -1434, 0, 7, -0.547027587890625, -0.547027587890625, None, 
0.0546875, -1435, 0, 7, -0.547409057617188, -0.547409057617188, None, 
0.056640625, -1442, 0, 7, -0.550079345703125, -0.550079345703125, None, 
0.05859375, -1450, 0, 7, -0.553131103515625, -0.553131103515625, None, 
0.060546875, -1455, 2, 7, -0.555038452148438, -0.555038452148438, None, 
0.0625, -1448, 0, 7, -0.5523681640625, -0.5523681640625, None, 
0.064453125, -1436, 0, 7, -0.54779052734375, -0.54779052734375, None, 
0.06640625, -1414, 0, 7, -0.539398193359375, -0.539398193359375, None, 
0.068359375, -1390, 0, 7, -0.530242919921875, -0.530242919921875, None, 
0.0703125, -1377, 0, 7, -0.525283813476563, -0.525283813476563, None, 
0.072265625, -1373, 0, 7, -0.523757934570313, -0.523757934570313, None, 
0.07421875, -1381, 0, 7, -0.526809692382813, -0.526809692382813, None, 
0.076171875, -1384, 0, 7, -0.5279541015625, -0.5279541015625, None, 
0.078125, -1382, 0, 7, -0.527191162109375, -0.527191162109375, None, 
0.080078125, -1366, 0, 7, -0.521087646484375, -0.521087646484375, None, 
0.08203125, -1345, 0, 7, -0.513076782226563, -0.513076782226563, None, 
0.083984375, -1324, 0, 7, -0.50506591796875, -0.50506591796875, None, 
0.0859375, -1318, 0, 7, -0.502777099609375, -0.502777099609375, None, 
0.087890625, -1309, 0, 7, -0.499343872070313, -0.499343872070313, None, 
0.08984375, -1315, 0, 7, -0.501632690429688, -0.501632690429688, None, 
0.091796875, -1326, 2, 7, -0.505828857421875, -0.505828857421875, None, 
0.09375, -1332, 0, 7, -0.50811767578125, -0.50811767578125, None, 
0.095703125, -1332, 0, 7, -0.50811767578125, -0.50811767578125, None, 
0.09765625, -1314, 0, 7, -0.501251220703125, -0.501251220703125, None, 
0.099609375, -1284, 0, 7, -0.48980712890625, -0.48980712890625, None, 
0.1015625, -1269, 0, 7, -0.484085083007813, -0.484085083007813, None, 
0.103515625, -1258, 0, 7, -0.479888916015625, -0.479888916015625, None, 
0.10546875, -1260, 0, 7, -0.48065185546875, -0.48065185546875, None, 
0.107421875, -1265, 0, 7, -0.482559204101563, -0.482559204101563, None, 
0.109375, -1271, 0, 7, -0.484848022460938, -0.484848022460938, None, 
0.111328125, -1271, 0, 7, -0.484848022460938, -0.484848022460938, None, 
0.11328125, -1264, 0, 7, -0.482177734375, -0.482177734375, None, 
0.115234375, -1248, 0, 7, -0.47607421875, -0.47607421875, None, 
0.1171875, -1228, 0, 7, -0.46844482421875, -0.46844482421875, None, 
0.119140625, -1214, 0, 7, -0.463104248046875, -0.463104248046875, None, 
0.12109375, -1207, 0, 7, -0.460433959960938, -0.460433959960938, None, 
0.123046875, -1216, 2, 7, -0.4638671875, -0.4638671875, None, 
0.125, -1228, 0, 7, -0.46844482421875, -0.46844482421875, None, 
0.126953125, -1226, 0, 7, -0.467681884765625, -0.467681884765625, None, 
0.12890625, -1216, 0, 7, -0.4638671875, -0.4638671875, None, 
0.130859375, -1200, 0, 7, -0.457763671875, -0.457763671875, None, 
0.1328125, -1173, 0, 7, -0.447463989257813, -0.447463989257813, None, 
0.134765625, -1158, 0, 7, -0.441741943359375, -0.441741943359375, None, 
0.13671875, -1149, 0, 7, -0.438308715820313, -0.438308715820313, None, 
0.138671875, -1147, 0, 7, -0.437545776367188, -0.437545776367188, None, 
0.140625, -1157, 0, 7, -0.441360473632813, -0.441360473632813, None, 
0.142578125, -1164, 0, 7, -0.44403076171875, -0.44403076171875, None, 
0.14453125, -1170, 0, 7, -0.446319580078125, -0.446319580078125, None, 
0.146484375, -1165, 0, 7, -0.444412231445313, -0.444412231445313, None, 
0.1484375, -1143, 0, 7, -0.436019897460938, -0.436019897460938, None, 
0.150390625, -1124, 0, 7, -0.42877197265625, -0.42877197265625, None, 
0.15234375, -1113, 0, 7, -0.424575805664063, -0.424575805664063, None, 
0.154296875, -1112, 2, 7, -0.4241943359375, -0.4241943359375, None, 
0.15625, -1121, 0, 7, -0.427627563476563, -0.427627563476563, None, 
0.158203125, -1127, 0, 7, -0.429916381835938, -0.429916381835938, None, 
0.16015625, -1129, 0, 7, -0.430679321289063, -0.430679321289063, None, 
0.162109375, -1126, 0, 7, -0.429534912109375, -0.429534912109375, None, 
0.1640625, -1112, 0, 7, -0.4241943359375, -0.4241943359375, None, 
0.166015625, -1095, 0, 7, -0.417709350585938, -0.417709350585938, None, 
0.16796875, -1076, 0, 7, -0.41046142578125, -0.41046142578125, None, 
0.169921875, -1065, 0, 7, -0.406265258789063, -0.406265258789063, None, 
0.171875, -1064, 0, 7, -0.4058837890625, -0.4058837890625, None, 
0.173828125, -1076, 0, 7, -0.41046142578125, -0.41046142578125, None, 
0.17578125, -1086, 0, 7, -0.414276123046875, -0.414276123046875, None, 
0.177734375, -1083, 0, 7, -0.413131713867188, -0.413131713867188, None, 
0.1796875, -1077, 0, 7, -0.410842895507813, -0.410842895507813, None, 
0.181640625, -1059, 0, 7, -0.403976440429688, -0.403976440429688, None, 
0.18359375, -1045, 0, 7, -0.398635864257813, -0.398635864257813, None, 
0.185546875, -1038, 2, 7, -0.395965576171875, -0.395965576171875, None, 
0.1875, -1035, 0, 7, -0.394821166992188, -0.394821166992188, None, 
0.189453125, -1040, 0, 7, -0.396728515625, -0.396728515625, None, 
0.19140625, -1052, 0, 7, -0.40130615234375, -0.40130615234375, None, 
0.193359375, -1058, 0, 7, -0.403594970703125, -0.403594970703125, None, 
0.1953125, -1057, 0, 7, -0.403213500976563, -0.403213500976563, None, 
0.197265625, -1041, 0, 7, -0.397109985351563, -0.397109985351563, None, 
0.19921875, -1012, 0, 7, -0.38604736328125, -0.38604736328125, None, 
0.201171875, -992, 0, 7, -0.37841796875, -0.37841796875, None, 
0.203125, -981, 0, 7, -0.374221801757813, -0.374221801757813, None, 
0.205078125, -982, 0, 7, -0.374603271484375, -0.374603271484375, None, 
0.20703125, -987, 0, 7, -0.376510620117188, -0.376510620117188, None, 
0.208984375, -994, 0, 7, -0.379180908203125, -0.379180908203125, None, 
0.2109375, -999, 0, 7, -0.381088256835938, -0.381088256835938, None, 
0.212890625, -996, 0, 7, -0.37994384765625, -0.37994384765625, None, 
0.21484375, -981, 0, 7, -0.374221801757813, -0.374221801757813, None, 
0.216796875, -961, 2, 7, -0.366592407226563, -0.366592407226563, None, 
0.21875, -944, 0, 7, -0.360107421875, -0.360107421875, None, 
0.220703125, -936, 0, 7, -0.3570556640625, -0.3570556640625, None, 
0.22265625, -940, 0, 7, -0.35858154296875, -0.35858154296875, None, 
0.224609375, -951, 0, 7, -0.362777709960938, -0.362777709960938, None, 
0.2265625, -953, 0, 7, -0.363540649414063, -0.363540649414063, None, 
0.228515625, -948, 0, 7, -0.36163330078125, -0.36163330078125, None, 
0.23046875, -935, 0, 7, -0.356674194335938, -0.356674194335938, None, 
0.232421875, -916, 0, 7, -0.34942626953125, -0.34942626953125, None, 
0.234375, -904, 0, 7, -0.3448486328125, -0.3448486328125, None, 
0.236328125, -898, 0, 7, -0.342559814453125, -0.342559814453125, None, 
0.23828125, -893, 0, 7, -0.340652465820313, -0.340652465820313, None, 
0.240234375, -906, 0, 7, -0.345611572265625, -0.345611572265625, None, 
0.2421875, -918, 0, 7, -0.350189208984375, -0.350189208984375, None, 
0.244140625, -925, 0, 7, -0.352859497070313, -0.352859497070313, None, 
0.24609375, -925, 0, 7, -0.352859497070313, -0.352859497070313, None, 
0.248046875, -908, 2, 7, -0.34637451171875, -0.34637451171875, None, 
0.25, -884, 0, 7, -0.33721923828125, -0.33721923828125, None, 
0.251953125, -873, 0, 7, -0.333023071289063, -0.333023071289063, None, 
0.25390625, -867, 0, 7, -0.330734252929688, -0.330734252929688, None, 
0.255859375, -872, 0, 7, -0.3326416015625, -0.3326416015625, None, 
0.2578125, -880, 0, 7, -0.335693359375, -0.335693359375, None, 
0.259765625, -883, 0, 7, -0.336837768554688, -0.336837768554688, None, 
0.26171875, -883, 0, 7, -0.336837768554688, -0.336837768554688, None, 
0.263671875, -879, 0, 7, -0.335311889648438, -0.335311889648438, None, 
0.265625, -860, 0, 7, -0.32806396484375, -0.32806396484375, None, 
0.267578125, -841, 0, 7, -0.320816040039063, -0.320816040039063, None, 
0.26953125, -826, 0, 7, -0.315093994140625, -0.315093994140625, None, 
0.271484375, -823, 0, 7, -0.313949584960938, -0.313949584960938, None, 
0.2734375, -833, 0, 7, -0.317764282226563, -0.317764282226563, None, 
0.275390625, -845, 0, 7, -0.322341918945313, -0.322341918945313, None, 
0.27734375, -842, 0, 7, -0.321197509765625, -0.321197509765625, None, 
0.279296875, -837, 2, 7, -0.319290161132813, -0.319290161132813, None, 
0.28125, -825, 0, 7, -0.314712524414063, -0.314712524414063, None, 
0.283203125, -806, 0, 7, -0.307464599609375, -0.307464599609375, None, 
0.28515625, -799, 0, 7, -0.304794311523438, -0.304794311523438, None, 
0.287109375, -795, 0, 7, -0.303268432617188, -0.303268432617188, None, 
0.2890625, -804, 0, 7, -0.30670166015625, -0.30670166015625, None, 
0.291015625, -822, 0, 7, -0.313568115234375, -0.313568115234375, None, 
0.29296875, -832, 0, 7, -0.3173828125, -0.3173828125, None, 
0.294921875, -836, 0, 7, -0.31890869140625, -0.31890869140625, None, 
0.296875, -830, 0, 7, -0.316619873046875, -0.316619873046875, None, 
0.298828125, -807, 0, 7, -0.307846069335938, -0.307846069335938, None, 
0.30078125, -788, 0, 7, -0.30059814453125, -0.30059814453125, None, 
0.302734375, -783, 0, 7, -0.298690795898438, -0.298690795898438, None, 
0.3046875, -791, 0, 7, -0.301742553710938, -0.301742553710938, None, 
0.306640625, -802, 0, 7, -0.305938720703125, -0.305938720703125, None, 
0.30859375, -813, 0, 7, -0.310134887695313, -0.310134887695313, None, 
0.310546875, -818, 2, 7, -0.312042236328125, -0.312042236328125, None, 
0.3125, -816, 0, 7, -0.311279296875, -0.311279296875, None, 
0.314453125, -804, 0, 7, -0.30670166015625, -0.30670166015625, None, 
0.31640625, -781, 0, 7, -0.297927856445313, -0.297927856445313, None, 
0.318359375, -763, 0, 7, -0.291061401367188, -0.291061401367188, None, 
0.3203125, -754, 0, 7, -0.287628173828125, -0.287628173828125, None, 
0.322265625, -759, 0, 7, -0.289535522460938, -0.289535522460938, None, 
0.32421875, -775, 0, 7, -0.295639038085938, -0.295639038085938, None, 
0.326171875, -786, 0, 7, -0.299835205078125, -0.299835205078125, None, 
0.328125, -785, 0, 7, -0.299453735351563, -0.299453735351563, None, 
0.330078125, -775, 0, 7, -0.295639038085938, -0.295639038085938, None, 
0.33203125, -753, 0, 7, -0.287246704101563, -0.287246704101563, None, 
0.333984375, -736, 0, 7, -0.28076171875, -0.28076171875, None, 
0.3359375, -729, 0, 7, -0.278091430664063, -0.278091430664063, None, 
0.337890625, -724, 0, 7, -0.27618408203125, -0.27618408203125, None, 
0.33984375, -733, 0, 7, -0.279617309570313, -0.279617309570313, None, 
0.341796875, -747, 2, 7, -0.284957885742188, -0.284957885742188, None, 
0.34375, -756, 0, 7, -0.28839111328125, -0.28839111328125, None, 
0.345703125, -759, 0, 7, -0.289535522460938, -0.289535522460938, None, 
0.34765625, -745, 0, 7, -0.284194946289063, -0.284194946289063, None, 
0.349609375, -723, 0, 7, -0.275802612304688, -0.275802612304688, None, 
0.3515625, -710, 0, 7, -0.270843505859375, -0.270843505859375, None, 
0.353515625, -702, 0, 7, -0.267791748046875, -0.267791748046875, None, 
0.35546875, -706, 0, 7, -0.269317626953125, -0.269317626953125, None, 
0.357421875, -716, 0, 7, -0.27313232421875, -0.27313232421875, None, 
0.359375, -720, 0, 7, -0.274658203125, -0.274658203125, None, 
0.361328125, -725, 0, 7, -0.276565551757813, -0.276565551757813, None, 
0.36328125, -721, 0, 7, -0.275039672851563, -0.275039672851563, None, 
0.365234375, -707, 0, 7, -0.269699096679688, -0.269699096679688, None, 
0.3671875, -686, 0, 7, -0.261688232421875, -0.261688232421875, None, 
0.369140625, -669, 0, 7, -0.255203247070313, -0.255203247070313, None, 
0.37109375, -649, 0, 7, -0.247573852539063, -0.247573852539063, None, 
0.373046875, -638, 2, 7, -0.243377685546875, -0.243377685546875, None, 
0.375, -620, 0, 7, -0.23651123046875, -0.23651123046875, None, 
0.376953125, -580, 0, 7, -0.22125244140625, -0.22125244140625, None, 
0.37890625, -520, 0, 7, -0.1983642578125, -0.1983642578125, None, 
0.380859375, -437, 0, 7, -0.166702270507813, -0.166702270507813, None, 
0.3828125, -339, 0, 7, -0.129318237304688, -0.129318237304688, None, 
0.384765625, -234, 0, 7, -0.089263916015625, -0.089263916015625, None, 
0.38671875, -133, 0, 7, -0.0507354736328125, -0.0507354736328125, None, 
0.388671875, -43, 0, 7, -0.0164031982421875, -0.0164031982421875, None, 
0.390625, 18, 0, 7, 0.006866455078125, 0.006866455078125, None, 
0.392578125, 51, 0, 7, 0.0194549560546875, 0.0194549560546875, None, 
0.39453125, 50, 0, 7, 0.019073486328125, 0.019073486328125, None, 
0.396484375, 14, 0, 7, 0.005340576171875, 0.005340576171875, None, 
0.3984375, -52, 0, 7, -0.01983642578125, -0.01983642578125, None, 
0.400390625, -153, 0, 7, -0.0583648681640625, -0.0583648681640625, None, 
0.40234375, -287, 0, 7, -0.109481811523438, -0.109481811523438, None, 
0.404296875, -433, 2, 7, -0.165176391601563, -0.165176391601563, None, 
0.40625, -574, 0, 7, -0.218963623046875, -0.218963623046875, None, 
0.408203125, -692, 0, 7, -0.26397705078125, -0.26397705078125, None, 
0.41015625, -771, 0, 7, -0.294113159179688, -0.294113159179688, None, 
0.412109375, -815, 0, 7, -0.310897827148438, -0.310897827148438, None, 
0.4140625, -824, 0, 7, -0.3143310546875, -0.3143310546875, None, 
0.416015625, -805, 0, 7, -0.307083129882813, -0.307083129882813, None, 
0.41796875, -776, 0, 7, -0.2960205078125, -0.2960205078125, None, 
0.419921875, -753, 0, 7, -0.287246704101563, -0.287246704101563, None, 
0.421875, -741, 0, 7, -0.282669067382813, -0.282669067382813, None, 
0.423828125, -740, 0, 7, -0.28228759765625, -0.28228759765625, None, 
0.42578125, -742, 0, 7, -0.283050537109375, -0.283050537109375, None, 
0.427734375, -729, 0, 7, -0.278091430664063, -0.278091430664063, None, 
0.4296875, -713, 0, 7, -0.271987915039063, -0.271987915039063, None, 
0.431640625, -692, 0, 7, -0.26397705078125, -0.26397705078125, None, 
0.43359375, -668, 0, 7, -0.25482177734375, -0.25482177734375, None, 
0.435546875, -654, 2, 7, -0.249481201171875, -0.249481201171875, None, 
0.4375, -639, 0, 7, -0.243759155273438, -0.243759155273438, None, 
0.439453125, -636, 0, 7, -0.24261474609375, -0.24261474609375, None, 
0.44140625, -643, 0, 7, -0.245285034179688, -0.245285034179688, None, 
0.443359375, -644, 0, 7, -0.24566650390625, -0.24566650390625, None, 
0.4453125, -643, 0, 7, -0.245285034179688, -0.245285034179688, None, 
0.447265625, -629, 0, 7, -0.239944458007813, -0.239944458007813, None, 
0.44921875, -606, 0, 7, -0.231170654296875, -0.231170654296875, None, 
0.451171875, -591, 0, 7, -0.225448608398438, -0.225448608398438, None, 
0.453125, -583, 0, 7, -0.222396850585938, -0.222396850585938, None, 
0.455078125, -583, 0, 7, -0.222396850585938, -0.222396850585938, None, 
0.45703125, -586, 0, 7, -0.223541259765625, -0.223541259765625, None, 
0.458984375, -591, 0, 7, -0.225448608398438, -0.225448608398438, None, 
0.4609375, -593, 0, 7, -0.226211547851563, -0.226211547851563, None, 
0.462890625, -592, 0, 7, -0.225830078125, -0.225830078125, None, 
0.46484375, -582, 0, 7, -0.222015380859375, -0.222015380859375, None, 
0.466796875, -569, 2, 7, -0.217056274414063, -0.217056274414063, None, 
0.46875, -560, 0, 7, -0.213623046875, -0.213623046875, None, 
0.470703125, -562, 0, 7, -0.214385986328125, -0.214385986328125, None, 
0.47265625, -574, 0, 7, -0.218963623046875, -0.218963623046875, None, 
0.474609375, -591, 0, 7, -0.225448608398438, -0.225448608398438, None, 
0.4765625, -595, 0, 7, -0.226974487304688, -0.226974487304688, None, 
0.478515625, -588, 0, 7, -0.22430419921875, -0.22430419921875, None, 
0.48046875, -575, 0, 7, -0.219345092773438, -0.219345092773438, None, 
0.482421875, -553, 0, 7, -0.210952758789063, -0.210952758789063, None, 
0.484375, -537, 0, 7, -0.204849243164063, -0.204849243164063, None, 
0.486328125, -528, 0, 7, -0.201416015625, -0.201416015625, None, 
0.48828125, -521, 0, 7, -0.198745727539063, -0.198745727539063, None, 
0.490234375, -531, 0, 7, -0.202560424804688, -0.202560424804688, None, 
0.4921875, -542, 0, 7, -0.206756591796875, -0.206756591796875, None, 
0.494140625, -553, 0, 7, -0.210952758789063, -0.210952758789063, None, 
0.49609375, -557, 0, 7, -0.212478637695313, -0.212478637695313, None, 
0.498046875, -543, 2, 7, -0.207138061523438, -0.207138061523438, None, 
0.5, -528, 0, 7, -0.201416015625, -0.201416015625, None, 
0.501953125, -519, 0, 7, -0.197982788085938, -0.197982788085938, None, 
0.50390625, -517, 0, 7, -0.197219848632813, -0.197219848632813, None, 
0.505859375, -524, 0, 7, -0.19989013671875, -0.19989013671875, None, 
0.5078125, -530, 0, 7, -0.202178955078125, -0.202178955078125, None, 
0.509765625, -533, 0, 7, -0.203323364257813, -0.203323364257813, None, 
0.51171875, -531, 0, 7, -0.202560424804688, -0.202560424804688, None, 
0.513671875, -526, 0, 7, -0.200653076171875, -0.200653076171875, None, 
0.515625, -512, 0, 7, -0.1953125, -0.1953125, None, 
0.517578125, -496, 0, 7, -0.189208984375, -0.189208984375, None, 
0.51953125, -487, 0, 7, -0.185775756835938, -0.185775756835938, None, 
0.521484375, -486, 0, 7, -0.185394287109375, -0.185394287109375, None, 
0.5234375, -497, 0, 7, -0.189590454101563, -0.189590454101563, None, 
0.525390625, -513, 0, 7, -0.195693969726563, -0.195693969726563, None, 
0.52734375, -516, 0, 7, -0.19683837890625, -0.19683837890625, None, 
0.529296875, -517, 2, 7, -0.197219848632813, -0.197219848632813, None, 
0.53125, -503, 0, 7, -0.191879272460938, -0.191879272460938, None, 
0.533203125, -485, 0, 7, -0.185012817382813, -0.185012817382813, None, 
0.53515625, -478, 0, 7, -0.182342529296875, -0.182342529296875, None, 
0.537109375, -471, 0, 7, -0.179672241210938, -0.179672241210938, None, 
0.5390625, -472, 0, 7, -0.1800537109375, -0.1800537109375, None, 
0.541015625, -484, 0, 7, -0.18463134765625, -0.18463134765625, None, 
0.54296875, -492, 0, 7, -0.18768310546875, -0.18768310546875, None, 
0.544921875, -496, 0, 7, -0.189208984375, -0.189208984375, None, 
0.546875, -488, 0, 7, -0.1861572265625, -0.1861572265625, None, 
0.548828125, -468, 0, 7, -0.17852783203125, -0.17852783203125, None, 
0.55078125, -453, 0, 7, -0.172805786132813, -0.172805786132813, None, 
0.552734375, -446, 0, 7, -0.170135498046875, -0.170135498046875, None, 
0.5546875, -447, 0, 7, -0.170516967773438, -0.170516967773438, None, 
0.556640625, -460, 0, 7, -0.17547607421875, -0.17547607421875, None, 
0.55859375, -475, 0, 7, -0.181198120117188, -0.181198120117188, None, 
0.560546875, -482, 2, 7, -0.183868408203125, -0.183868408203125, None, 
0.5625, -484, 0, 7, -0.18463134765625, -0.18463134765625, None, 
0.564453125, -472, 0, 7, -0.1800537109375, -0.1800537109375, None, 
0.56640625, -452, 0, 7, -0.17242431640625, -0.17242431640625, None, 
0.568359375, -435, 0, 7, -0.165939331054688, -0.165939331054688, None, 
0.5703125, -423, 0, 7, -0.161361694335938, -0.161361694335938, None, 
0.572265625, -424, 0, 7, -0.1617431640625, -0.1617431640625, None, 
0.57421875, -440, 0, 7, -0.1678466796875, -0.1678466796875, None, 
0.576171875, -446, 0, 7, -0.170135498046875, -0.170135498046875, None, 
0.578125, -447, 0, 7, -0.170516967773438, -0.170516967773438, None, 
0.580078125, -439, 0, 7, -0.167465209960938, -0.167465209960938, None, 
0.58203125, -423, 0, 7, -0.161361694335938, -0.161361694335938, None, 
0.583984375, -410, 0, 7, -0.156402587890625, -0.156402587890625, None, 
0.5859375, -402, 0, 7, -0.153350830078125, -0.153350830078125, None, 
0.587890625, -397, 0, 7, -0.151443481445313, -0.151443481445313, None, 
0.58984375, -409, 0, 7, -0.156021118164063, -0.156021118164063, None, 
0.591796875, -426, 2, 7, -0.162506103515625, -0.162506103515625, None, 
0.59375, -434, 0, 7, -0.165557861328125, -0.165557861328125, None, 
0.595703125, -437, 0, 7, -0.166702270507813, -0.166702270507813, None, 
0.59765625, -422, 0, 7, -0.160980224609375, -0.160980224609375, None, 
0.599609375, -398, 0, 7, -0.151824951171875, -0.151824951171875, None, 
0.6015625, -381, 0, 7, -0.145339965820313, -0.145339965820313, None, 
0.603515625, -372, 0, 7, -0.14190673828125, -0.14190673828125, None, 
0.60546875, -373, 0, 7, -0.142288208007813, -0.142288208007813, None, 
0.607421875, -382, 0, 7, -0.145721435546875, -0.145721435546875, None, 
0.609375, -387, 0, 7, -0.147628784179688, -0.147628784179688, None, 
0.611328125, -389, 0, 7, -0.148391723632813, -0.148391723632813, None, 
0.61328125, -384, 0, 7, -0.146484375, -0.146484375, None, 
0.615234375, -370, 0, 7, -0.141143798828125, -0.141143798828125, None, 
0.6171875, -353, 0, 7, -0.134658813476563, -0.134658813476563, None, 
0.619140625, -342, 0, 7, -0.130462646484375, -0.130462646484375, None, 
0.62109375, -343, 0, 7, -0.130844116210938, -0.130844116210938, None, 
0.623046875, -352, 2, 7, -0.13427734375, -0.13427734375, None, 
0.625, -366, 0, 7, -0.139617919921875, -0.139617919921875, None, 
0.626953125, -370, 0, 7, -0.141143798828125, -0.141143798828125, None, 
0.62890625, -363, 0, 7, -0.138473510742188, -0.138473510742188, None, 
0.630859375, -347, 0, 7, -0.132369995117188, -0.132369995117188, None, 
0.6328125, -324, 0, 7, -0.12359619140625, -0.12359619140625, None, 
0.634765625, -310, 0, 7, -0.118255615234375, -0.118255615234375, None, 
0.63671875, -297, 0, 7, -0.113296508789063, -0.113296508789063, None, 
0.638671875, -296, 0, 7, -0.1129150390625, -0.1129150390625, None, 
0.640625, -307, 0, 7, -0.117111206054688, -0.117111206054688, None, 
0.642578125, -317, 0, 7, -0.120925903320313, -0.120925903320313, None, 
0.64453125, -321, 0, 7, -0.122451782226563, -0.122451782226563, None, 
0.646484375, -317, 0, 7, -0.120925903320313, -0.120925903320313, None, 
0.6484375, -301, 0, 7, -0.114822387695313, -0.114822387695313, None, 
0.650390625, -286, 0, 7, -0.109100341796875, -0.109100341796875, None, 
0.65234375, -283, 0, 7, -0.107955932617188, -0.107955932617188, None, 
0.654296875, -285, 2, 7, -0.108718872070313, -0.108718872070313, None, 
0.65625, -295, 0, 7, -0.112533569335938, -0.112533569335938, None, 
0.658203125, -308, 0, 7, -0.11749267578125, -0.11749267578125, None, 
0.66015625, -313, 0, 7, -0.119400024414063, -0.119400024414063, None, 
0.662109375, -312, 0, 7, -0.1190185546875, -0.1190185546875, None, 
0.6640625, -304, 0, 7, -0.115966796875, -0.115966796875, None, 
0.666015625, -287, 0, 7, -0.109481811523438, -0.109481811523438, None, 
0.66796875, -274, 0, 7, -0.104522705078125, -0.104522705078125, None, 
0.669921875, -273, 0, 7, -0.104141235351563, -0.104141235351563, None, 
0.671875, -283, 0, 7, -0.107955932617188, -0.107955932617188, None, 
0.673828125, -302, 0, 7, -0.115203857421875, -0.115203857421875, None, 
0.67578125, -321, 0, 7, -0.122451782226563, -0.122451782226563, None, 
0.677734375, -326, 0, 7, -0.124359130859375, -0.124359130859375, None, 
0.6796875, -329, 0, 7, -0.125503540039063, -0.125503540039063, None, 
0.681640625, -323, 0, 7, -0.123214721679688, -0.123214721679688, None, 
0.68359375, -319, 0, 7, -0.121688842773438, -0.121688842773438, None, 
0.685546875, -320, 2, 7, -0.1220703125, -0.1220703125, None, 
0.6875, -325, 0, 7, -0.123977661132813, -0.123977661132813, None, 
0.689453125, -343, 0, 7, -0.130844116210938, -0.130844116210938, None, 
0.69140625, -360, 0, 7, -0.1373291015625, -0.1373291015625, None, 
0.693359375, -374, 0, 7, -0.142669677734375, -0.142669677734375, None, 
0.6953125, -382, 0, 7, -0.145721435546875, -0.145721435546875, None, 
0.697265625, -377, 0, 7, -0.143814086914063, -0.143814086914063, None, 
0.69921875, -365, 0, 7, -0.139236450195313, -0.139236450195313, None, 
0.701171875, -363, 0, 7, -0.138473510742188, -0.138473510742188, None, 
0.703125, -371, 0, 7, -0.141525268554688, -0.141525268554688, None, 
0.705078125, -385, 0, 7, -0.146865844726563, -0.146865844726563, None, 
0.70703125, -403, 0, 7, -0.153732299804688, -0.153732299804688, None, 
0.708984375, -421, 0, 7, -0.160598754882813, -0.160598754882813, None, 
0.7109375, -428, 0, 7, -0.16326904296875, -0.16326904296875, None, 
0.712890625, -429, 0, 7, -0.163650512695313, -0.163650512695313, None, 
0.71484375, -418, 0, 7, -0.159454345703125, -0.159454345703125, None, 
0.716796875, -400, 2, 7, -0.152587890625, -0.152587890625, None, 
0.71875, -389, 0, 7, -0.148391723632813, -0.148391723632813, None, 
0.720703125, -390, 0, 7, -0.148773193359375, -0.148773193359375, None, 
0.72265625, -405, 0, 7, -0.154495239257813, -0.154495239257813, None, 
0.724609375, -426, 0, 7, -0.162506103515625, -0.162506103515625, None, 
0.7265625, -438, 0, 7, -0.167083740234375, -0.167083740234375, None, 
0.728515625, -441, 0, 7, -0.168228149414063, -0.168228149414063, None, 
0.73046875, -436, 0, 7, -0.16632080078125, -0.16632080078125, None, 
0.732421875, -424, 0, 7, -0.1617431640625, -0.1617431640625, None, 
0.734375, -416, 0, 7, -0.15869140625, -0.15869140625, None, 
0.736328125, -408, 0, 7, -0.1556396484375, -0.1556396484375, None, 
0.73828125, -406, 0, 7, -0.154876708984375, -0.154876708984375, None, 
0.740234375, -417, 0, 7, -0.159072875976563, -0.159072875976563, None, 
0.7421875, -434, 0, 7, -0.165557861328125, -0.165557861328125, None, 
0.744140625, -448, 0, 7, -0.1708984375, -0.1708984375, None, 
0.74609375, -453, 0, 7, -0.172805786132813, -0.172805786132813, None, 
0.748046875, -441, 2, 7, -0.168228149414063, -0.168228149414063, None, 
0.75, -430, 0, 7, -0.164031982421875, -0.164031982421875, None, 
0.751953125, -420, 0, 7, -0.16021728515625, -0.16021728515625, None, 
0.75390625, -416, 0, 7, -0.15869140625, -0.15869140625, None, 
0.755859375, -419, 0, 7, -0.159835815429688, -0.159835815429688, None, 
0.7578125, -424, 0, 7, -0.1617431640625, -0.1617431640625, None, 
0.759765625, -429, 0, 7, -0.163650512695313, -0.163650512695313, None, 
0.76171875, -424, 0, 7, -0.1617431640625, -0.1617431640625, None, 
0.763671875, -423, 0, 7, -0.161361694335938, -0.161361694335938, None, 
0.765625, -410, 0, 7, -0.156402587890625, -0.156402587890625, None, 
0.767578125, -400, 0, 7, -0.152587890625, -0.152587890625, None, 
0.76953125, -394, 0, 7, -0.150299072265625, -0.150299072265625, None, 
0.771484375, -395, 0, 7, -0.150680541992188, -0.150680541992188, None, 
0.7734375, -411, 0, 7, -0.156784057617188, -0.156784057617188, None, 
0.775390625, -426, 0, 7, -0.162506103515625, -0.162506103515625, None, 
0.77734375, -427, 0, 7, -0.162887573242188, -0.162887573242188, None, 
0.779296875, -424, 2, 7, -0.1617431640625, -0.1617431640625, None, 
0.78125, -412, 0, 7, -0.15716552734375, -0.15716552734375, None, 
0.783203125, -400, 0, 7, -0.152587890625, -0.152587890625, None, 
0.78515625, -393, 0, 7, -0.149917602539063, -0.149917602539063, None, 
0.787109375, -387, 0, 7, -0.147628784179688, -0.147628784179688, None, 
0.7890625, -394, 0, 7, -0.150299072265625, -0.150299072265625, None, 
0.791015625, -408, 0, 7, -0.1556396484375, -0.1556396484375, None, 
0.79296875, -417, 0, 7, -0.159072875976563, -0.159072875976563, None, 
0.794921875, -419, 0, 7, -0.159835815429688, -0.159835815429688, None, 
0.796875, -411, 0, 7, -0.156784057617188, -0.156784057617188, None, 
0.798828125, -394, 0, 7, -0.150299072265625, -0.150299072265625, None, 
0.80078125, -378, 0, 7, -0.144195556640625, -0.144195556640625, None, 
0.802734375, -373, 0, 7, -0.142288208007813, -0.142288208007813, None, 
0.8046875, -377, 0, 7, -0.143814086914063, -0.143814086914063, None, 
0.806640625, -389, 0, 7, -0.148391723632813, -0.148391723632813, None, 
0.80859375, -401, 0, 7, -0.152969360351563, -0.152969360351563, None, 
0.810546875, -408, 2, 7, -0.1556396484375, -0.1556396484375, None, 
0.8125, -413, 0, 7, -0.157546997070313, -0.157546997070313, None, 
0.814453125, -400, 0, 7, -0.152587890625, -0.152587890625, None, 
0.81640625, -383, 0, 7, -0.146102905273438, -0.146102905273438, None, 
0.818359375, -369, 0, 7, -0.140762329101563, -0.140762329101563, None, 
0.8203125, -363, 0, 7, -0.138473510742188, -0.138473510742188, None, 
0.822265625, -368, 0, 7, -0.140380859375, -0.140380859375, None, 
0.82421875, -385, 0, 7, -0.146865844726563, -0.146865844726563, None, 
0.826171875, -394, 0, 7, -0.150299072265625, -0.150299072265625, None, 
0.828125, -399, 0, 7, -0.152206420898438, -0.152206420898438, None, 
0.830078125, -393, 0, 7, -0.149917602539063, -0.149917602539063, None, 
0.83203125, -382, 0, 7, -0.145721435546875, -0.145721435546875, None, 
0.833984375, -372, 0, 7, -0.14190673828125, -0.14190673828125, None, 
0.8359375, -369, 0, 7, -0.140762329101563, -0.140762329101563, None, 
0.837890625, -364, 0, 7, -0.13885498046875, -0.13885498046875, None, 
0.83984375, -377, 0, 7, -0.143814086914063, -0.143814086914063, None, 
0.841796875, -390, 2, 7, -0.148773193359375, -0.148773193359375, None, 
0.84375, -400, 0, 7, -0.152587890625, -0.152587890625, None, 
0.845703125, -396, 0, 7, -0.15106201171875, -0.15106201171875, None, 
0.84765625, -382, 0, 7, -0.145721435546875, -0.145721435546875, None, 
0.849609375, -363, 0, 7, -0.138473510742188, -0.138473510742188, None, 
0.8515625, -353, 0, 7, -0.134658813476563, -0.134658813476563, None, 
0.853515625, -348, 0, 7, -0.13275146484375, -0.13275146484375, None, 
0.85546875, -356, 0, 7, -0.13580322265625, -0.13580322265625, None, 
0.857421875, -367, 0, 7, -0.139999389648438, -0.139999389648438, None, 
0.859375, -379, 0, 7, -0.144577026367188, -0.144577026367188, None, 
0.861328125, -381, 0, 7, -0.145339965820313, -0.145339965820313, None, 
0.86328125, -380, 0, 7, -0.14495849609375, -0.14495849609375, None, 
0.865234375, -368, 0, 7, -0.140380859375, -0.140380859375, None, 
0.8671875, -353, 0, 7, -0.134658813476563, -0.134658813476563, None, 
0.869140625, -347, 0, 7, -0.132369995117188, -0.132369995117188, None, 
0.87109375, -350, 0, 7, -0.133514404296875, -0.133514404296875, None, 
0.873046875, -365, 2, 7, -0.139236450195313, -0.139236450195313, None, 
0.875, -385, 0, 7, -0.146865844726563, -0.146865844726563, None, 
0.876953125, -390, 0, 7, -0.148773193359375, -0.148773193359375, None, 
0.87890625, -389, 0, 7, -0.148391723632813, -0.148391723632813, None, 
0.880859375, -378, 0, 7, -0.144195556640625, -0.144195556640625, None, 
0.8828125, -362, 0, 7, -0.138092041015625, -0.138092041015625, None, 
0.884765625, -355, 0, 7, -0.135421752929688, -0.135421752929688, None, 
0.88671875, -346, 0, 7, -0.131988525390625, -0.131988525390625, None, 
0.888671875, -347, 0, 7, -0.132369995117188, -0.132369995117188, None, 
0.890625, -363, 0, 7, -0.138473510742188, -0.138473510742188, None, 
0.892578125, -374, 0, 7, -0.142669677734375, -0.142669677734375, None, 
0.89453125, -380, 0, 7, -0.14495849609375, -0.14495849609375, None, 
0.896484375, -371, 0, 7, -0.141525268554688, -0.141525268554688, None, 
0.8984375, -354, 0, 7, -0.135040283203125, -0.135040283203125, None, 
0.900390625, -338, 0, 7, -0.128936767578125, -0.128936767578125, None, 
0.90234375, -332, 0, 7, -0.12664794921875, -0.12664794921875, None, 
0.904296875, -333, 2, 7, -0.127029418945313, -0.127029418945313, None, 
0.90625, -342, 0, 7, -0.130462646484375, -0.130462646484375, None, 
0.908203125, -353, 0, 7, -0.134658813476563, -0.134658813476563, None, 
0.91015625, -361, 0, 7, -0.137710571289063, -0.137710571289063, None, 
0.912109375, -361, 0, 7, -0.137710571289063, -0.137710571289063, None, 
0.9140625, -355, 0, 7, -0.135421752929688, -0.135421752929688, None, 
0.916015625, -340, 0, 7, -0.12969970703125, -0.12969970703125, None, 
0.91796875, -327, 0, 7, -0.124740600585938, -0.124740600585938, None, 
0.919921875, -325, 0, 7, -0.123977661132813, -0.123977661132813, None, 
0.921875, -331, 0, 7, -0.126266479492188, -0.126266479492188, None, 
0.923828125, -350, 0, 7, -0.133514404296875, -0.133514404296875, None, 
0.92578125, -361, 0, 7, -0.137710571289063, -0.137710571289063, None, 
0.927734375, -361, 0, 7, -0.137710571289063, -0.137710571289063, None, 
0.9296875, -354, 0, 7, -0.135040283203125, -0.135040283203125, None, 
0.931640625, -338, 0, 7, -0.128936767578125, -0.128936767578125, None, 
0.93359375, -326, 0, 7, -0.124359130859375, -0.124359130859375, None, 
0.935546875, -318, 2, 7, -0.121307373046875, -0.121307373046875, None, 
0.9375, -312, 0, 7, -0.1190185546875, -0.1190185546875, None, 
0.939453125, -322, 0, 7, -0.122833251953125, -0.122833251953125, None, 
0.94140625, -335, 0, 7, -0.127792358398438, -0.127792358398438, None, 
0.943359375, -348, 0, 7, -0.13275146484375, -0.13275146484375, None, 
0.9453125, -349, 0, 7, -0.133132934570313, -0.133132934570313, None, 
0.947265625, -338, 0, 7, -0.128936767578125, -0.128936767578125, None, 
0.94921875, -323, 0, 7, -0.123214721679688, -0.123214721679688, None, 
0.951171875, -314, 0, 7, -0.119781494140625, -0.119781494140625, None, 
0.953125, -313, 0, 7, -0.119400024414063, -0.119400024414063, None, 
0.955078125, -320, 0, 7, -0.1220703125, -0.1220703125, None, 
0.95703125, -329, 0, 7, -0.125503540039063, -0.125503540039063, None, 
0.958984375, -338, 0, 7, -0.128936767578125, -0.128936767578125, None, 
0.9609375, -338, 0, 7, -0.128936767578125, -0.128936767578125, None, 
0.962890625, -339, 0, 7, -0.129318237304688, -0.129318237304688, None, 
0.96484375, -329, 0, 7, -0.125503540039063, -0.125503540039063, None, 
0.966796875, -313, 2, 7, -0.119400024414063, -0.119400024414063, None, 
0.96875, -308, 0, 7, -0.11749267578125, -0.11749267578125, None, 
0.970703125, -311, 0, 7, -0.118637084960938, -0.118637084960938, None, 
0.97265625, -323, 0, 7, -0.123214721679688, -0.123214721679688, None, 
0.974609375, -340, 0, 7, -0.12969970703125, -0.12969970703125, None, 
0.9765625, -345, 0, 7, -0.131607055664063, -0.131607055664063, None, 
0.978515625, -343, 0, 7, -0.130844116210938, -0.130844116210938, None, 
0.98046875, -332, 0, 7, -0.12664794921875, -0.12664794921875, None, 
0.982421875, -317, 0, 7, -0.120925903320313, -0.120925903320313, None, 
0.984375, -308, 0, 7, -0.11749267578125, -0.11749267578125, None, 
0.986328125, -302, 0, 7, -0.115203857421875, -0.115203857421875, None, 
0.98828125, -299, 0, 7, -0.114059448242188, -0.114059448242188, None, 
0.990234375, -312, 0, 7, -0.1190185546875, -0.1190185546875, None, 
0.9921875, -327, 0, 7, -0.124740600585938, -0.124740600585938, None, 
0.994140625, -337, 0, 7, -0.128555297851563, -0.128555297851563, None, 
0.99609375, -335, 0, 7, -0.127792358398438, -0.127792358398438, None, 
0.998046875, -325, 2, 7, -0.123977661132813, -0.123977661132813, None, 
1, -311, 0, 7, -0.118637084960938, -0.118637084960938, None, 
1.001953125, -306, 0, 7, -0.116729736328125, -0.116729736328125, None, 
1.00390625, -309, 0, 7, -0.117874145507813, -0.117874145507813, None, 
1.005859375, -313, 0, 7, -0.119400024414063, -0.119400024414063, None, 
1.0078125, -325, 0, 7, -0.123977661132813, -0.123977661132813, None, 
1.009765625, -332, 0, 7, -0.12664794921875, -0.12664794921875, None, 
1.01171875, -334, 0, 7, -0.127410888671875, -0.127410888671875, None, 
1.013671875, -331, 0, 7, -0.126266479492188, -0.126266479492188, None, 
1.015625, -317, 0, 7, -0.120925903320313, -0.120925903320313, None, 
1.017578125, -300, 0, 7, -0.11444091796875, -0.11444091796875, None, 
1.01953125, -294, 0, 7, -0.112152099609375, -0.112152099609375, None, 
1.021484375, -297, 0, 7, -0.113296508789063, -0.113296508789063, None, 
1.0234375, -318, 0, 7, -0.121307373046875, -0.121307373046875, None, 
1.025390625, -337, 0, 7, -0.128555297851563, -0.128555297851563, None, 
1.02734375, -346, 0, 7, -0.131988525390625, -0.131988525390625, None, 
1.029296875, -346, 2, 7, -0.131988525390625, -0.131988525390625, None, 
1.03125, -333, 0, 7, -0.127029418945313, -0.127029418945313, None, 
1.033203125, -314, 0, 7, -0.119781494140625, -0.119781494140625, None, 
1.03515625, -303, 0, 7, -0.115585327148438, -0.115585327148438, None, 
1.037109375, -291, 0, 7, -0.111007690429688, -0.111007690429688, None, 
1.0390625, -292, 0, 7, -0.11138916015625, -0.11138916015625, None, 
1.041015625, -301, 0, 7, -0.114822387695313, -0.114822387695313, None, 
1.04296875, -308, 0, 7, -0.11749267578125, -0.11749267578125, None, 
1.044921875, -317, 0, 7, -0.120925903320313, -0.120925903320313, None, 
1.046875, -319, 0, 7, -0.121688842773438, -0.121688842773438, None, 
1.048828125, -302, 0, 7, -0.115203857421875, -0.115203857421875, None, 
1.05078125, -290, 0, 7, -0.110626220703125, -0.110626220703125, None, 
1.052734375, -288, 0, 7, -0.10986328125, -0.10986328125, None, 
1.0546875, -293, 0, 7, -0.111770629882813, -0.111770629882813, None, 
1.056640625, -306, 0, 7, -0.116729736328125, -0.116729736328125, None, 
1.05859375, -324, 0, 7, -0.12359619140625, -0.12359619140625, None, 
1.060546875, -330, 2, 7, -0.125885009765625, -0.125885009765625, None, 
1.0625, -333, 0, 7, -0.127029418945313, -0.127029418945313, None, 
1.064453125, -320, 0, 7, -0.1220703125, -0.1220703125, None, 
1.06640625, -305, 0, 7, -0.116348266601563, -0.116348266601563, None, 
1.068359375, -288, 0, 7, -0.10986328125, -0.10986328125, None, 
1.0703125, -278, 0, 7, -0.106048583984375, -0.106048583984375, None, 
1.072265625, -280, 0, 7, -0.1068115234375, -0.1068115234375, None, 
1.07421875, -294, 0, 7, -0.112152099609375, -0.112152099609375, None, 
1.076171875, -309, 0, 7, -0.117874145507813, -0.117874145507813, None, 
1.078125, -316, 0, 7, -0.12054443359375, -0.12054443359375, None, 
1.080078125, -311, 0, 7, -0.118637084960938, -0.118637084960938, None, 
1.08203125, -300, 0, 7, -0.11444091796875, -0.11444091796875, None, 
1.083984375, -288, 0, 7, -0.10986328125, -0.10986328125, None, 
1.0859375, -285, 0, 7, -0.108718872070313, -0.108718872070313, None, 
1.087890625, -285, 0, 7, -0.108718872070313, -0.108718872070313, None, 
1.08984375, -297, 0, 7, -0.113296508789063, -0.113296508789063, None, 
1.091796875, -309, 2, 7, -0.117874145507813, -0.117874145507813, None, 
1.09375, -316, 0, 7, -0.12054443359375, -0.12054443359375, None, 
1.095703125, -320, 0, 7, -0.1220703125, -0.1220703125, None, 
1.09765625, -309, 0, 7, -0.117874145507813, -0.117874145507813, None, 
1.099609375, -288, 0, 7, -0.10986328125, -0.10986328125, None, 
1.1015625, -275, 0, 7, -0.104904174804688, -0.104904174804688, None, 
1.103515625, -269, 0, 7, -0.102615356445313, -0.102615356445313, None, 
1.10546875, -276, 0, 7, -0.10528564453125, -0.10528564453125, None, 
1.107421875, -291, 0, 7, -0.111007690429688, -0.111007690429688, None, 
1.109375, -297, 0, 7, -0.113296508789063, -0.113296508789063, None, 
1.111328125, -301, 0, 7, -0.114822387695313, -0.114822387695313, None, 
1.11328125, -297, 0, 7, -0.113296508789063, -0.113296508789063, None, 
1.115234375, -287, 0, 7, -0.109481811523438, -0.109481811523438, None, 
1.1171875, -280, 0, 7, -0.1068115234375, -0.1068115234375, None, 
1.119140625, -277, 0, 7, -0.105667114257813, -0.105667114257813, None, 
1.12109375, -283, 0, 7, -0.107955932617188, -0.107955932617188, None, 
1.123046875, -302, 2, 7, -0.115203857421875, -0.115203857421875, None, 
1.125, -326, 0, 7, -0.124359130859375, -0.124359130859375, None, 
1.126953125, -338, 0, 7, -0.128936767578125, -0.128936767578125, None, 
1.12890625, -340, 0, 7, -0.12969970703125, -0.12969970703125, None, 
1.130859375, -328, 0, 7, -0.1251220703125, -0.1251220703125, None, 
1.1328125, -312, 0, 7, -0.1190185546875, -0.1190185546875, None, 
1.134765625, -303, 0, 7, -0.115585327148438, -0.115585327148438, None, 
1.13671875, -300, 0, 7, -0.11444091796875, -0.11444091796875, None, 
1.138671875, -304, 0, 7, -0.115966796875, -0.115966796875, None, 
1.140625, -320, 0, 7, -0.1220703125, -0.1220703125, None, 
1.142578125, -330, 0, 7, -0.125885009765625, -0.125885009765625, None, 
1.14453125, -332, 0, 7, -0.12664794921875, -0.12664794921875, None, 
1.146484375, -332, 0, 7, -0.12664794921875, -0.12664794921875, None, 
1.1484375, -321, 0, 7, -0.122451782226563, -0.122451782226563, None, 
1.150390625, -304, 0, 7, -0.115966796875, -0.115966796875, None, 
1.15234375, -302, 0, 7, -0.115203857421875, -0.115203857421875, None, 
1.154296875, -304, 2, 7, -0.115966796875, -0.115966796875, None, 
1.15625, -319, 0, 7, -0.121688842773438, -0.121688842773438, None, 
1.158203125, -330, 0, 7, -0.125885009765625, -0.125885009765625, None, 
1.16015625, -337, 0, 7, -0.128555297851563, -0.128555297851563, None, 
1.162109375, -338, 0, 7, -0.128936767578125, -0.128936767578125, None, 
1.1640625, -332, 0, 7, -0.12664794921875, -0.12664794921875, None, 
1.166015625, -320, 0, 7, -0.1220703125, -0.1220703125, None, 
1.16796875, -309, 0, 7, -0.117874145507813, -0.117874145507813, None, 
1.169921875, -301, 0, 7, -0.114822387695313, -0.114822387695313, None, 
1.171875, -304, 0, 7, -0.115966796875, -0.115966796875, None, 
1.173828125, -313, 0, 7, -0.119400024414063, -0.119400024414063, None, 
1.17578125, -321, 0, 7, -0.122451782226563, -0.122451782226563, None, 
1.177734375, -321, 0, 7, -0.122451782226563, -0.122451782226563, None, 
1.1796875, -313, 0, 7, -0.119400024414063, -0.119400024414063, None, 
1.181640625, -301, 0, 7, -0.114822387695313, -0.114822387695313, None, 
1.18359375, -293, 0, 7, -0.111770629882813, -0.111770629882813, None, 
1.185546875, -295, 2, 7, -0.112533569335938, -0.112533569335938, None, 
1.1875, -299, 0, 7, -0.114059448242188, -0.114059448242188, None, 
1.189453125, -311, 0, 7, -0.118637084960938, -0.118637084960938, None, 
1.19140625, -323, 0, 7, -0.123214721679688, -0.123214721679688, None, 
1.193359375, -327, 0, 7, -0.124740600585938, -0.124740600585938, None, 
1.1953125, -328, 0, 7, -0.1251220703125, -0.1251220703125, None, 
1.197265625, -318, 0, 7, -0.121307373046875, -0.121307373046875, None, 
1.19921875, -294, 0, 7, -0.112152099609375, -0.112152099609375, None, 
1.201171875, -276, 0, 7, -0.10528564453125, -0.10528564453125, None, 
1.203125, -256, 0, 7, -0.09765625, -0.09765625, None, 
1.205078125, -242, 0, 7, -0.092315673828125, -0.092315673828125, None, 
1.20703125, -230, 0, 7, -0.087738037109375, -0.087738037109375, None, 
1.208984375, -203, 0, 7, -0.0774383544921875, -0.0774383544921875, None, 
1.2109375, -160, 0, 7, -0.06103515625, -0.06103515625, None, 
1.212890625, -98, 0, 7, -0.037384033203125, -0.037384033203125, None, 
1.21484375, -17, 0, 7, -0.0064849853515625, -0.0064849853515625, None, 
1.216796875, 77, 2, 7, 0.0293731689453125, 0.0293731689453125, None, 
1.21875, 176, 0, 7, 0.067138671875, 0.067138671875, None, 
1.220703125, 271, 0, 7, 0.103378295898438, 0.103378295898438, None, 
1.22265625, 347, 0, 7, 0.132369995117188, 0.132369995117188, None, 
1.224609375, 391, 0, 7, 0.149154663085938, 0.149154663085938, None, 
1.2265625, 411, 0, 7, 0.156784057617188, 0.156784057617188, None, 
1.228515625, 397, 0, 7, 0.151443481445313, 0.151443481445313, None, 
1.23046875, 350, 0, 7, 0.133514404296875, 0.133514404296875, None, 
1.232421875, 267, 0, 7, 0.101852416992188, 0.101852416992188, None, 
1.234375, 151, 0, 7, 0.0576019287109375, 0.0576019287109375, None, 
1.236328125, 18, 0, 7, 0.006866455078125, 0.006866455078125, None, 
1.23828125, -117, 0, 7, -0.0446319580078125, -0.0446319580078125, None, 
1.240234375, -247, 0, 7, -0.0942230224609375, -0.0942230224609375, None, 
1.2421875, -353, 0, 7, -0.134658813476563, -0.134658813476563, None, 
1.244140625, -418, 0, 7, -0.159454345703125, -0.159454345703125, None, 
1.24609375, -458, 0, 7, -0.174713134765625, -0.174713134765625, None, 
1.248046875, -465, 2, 7, -0.177383422851563, -0.177383422851563, None, 
1.25, -452, 0, 7, -0.17242431640625, -0.17242431640625, None, 
1.251953125, -436, 0, 7, -0.16632080078125, -0.16632080078125, None, 
1.25390625, -422, 0, 7, -0.160980224609375, -0.160980224609375, None, 
1.255859375, -420, 0, 7, -0.16021728515625, -0.16021728515625, None, 
1.2578125, -421, 0, 7, -0.160598754882813, -0.160598754882813, None, 
1.259765625, -412, 0, 7, -0.15716552734375, -0.15716552734375, None, 
1.26171875, -404, 0, 7, -0.15411376953125, -0.15411376953125, None, 
1.263671875, -385, 0, 7, -0.146865844726563, -0.146865844726563, None, 
1.265625, -362, 0, 7, -0.138092041015625, -0.138092041015625, None, 
1.267578125, -336, 0, 7, -0.128173828125, -0.128173828125, None, 
1.26953125, -312, 0, 7, -0.1190185546875, -0.1190185546875, None, 
1.271484375, -302, 0, 7, -0.115203857421875, -0.115203857421875, None, 
1.2734375, -306, 0, 7, -0.116729736328125, -0.116729736328125, None, 
1.275390625, -316, 0, 7, -0.12054443359375, -0.12054443359375, None, 
1.27734375, -322, 0, 7, -0.122833251953125, -0.122833251953125, None, 
1.279296875, -320, 2, 7, -0.1220703125, -0.1220703125, None, 
1.28125, -311, 0, 7, -0.118637084960938, -0.118637084960938, None, 
1.283203125, -299, 0, 7, -0.114059448242188, -0.114059448242188, None, 
1.28515625, -298, 0, 7, -0.113677978515625, -0.113677978515625, None, 
1.287109375, -297, 0, 7, -0.113296508789063, -0.113296508789063, None, 
1.2890625, -297, 0, 7, -0.113296508789063, -0.113296508789063, None, 
1.291015625, -308, 0, 7, -0.11749267578125, -0.11749267578125, None, 
1.29296875, -312, 0, 7, -0.1190185546875, -0.1190185546875, None, 
1.294921875, -318, 0, 7, -0.121307373046875, -0.121307373046875, None, 
1.296875, -313, 0, 7, -0.119400024414063, -0.119400024414063, None, 
1.298828125, -294, 0, 7, -0.112152099609375, -0.112152099609375, None, 
1.30078125, -274, 0, 7, -0.104522705078125, -0.104522705078125, None, 
1.302734375, -269, 0, 7, -0.102615356445313, -0.102615356445313, None, 
1.3046875, -269, 0, 7, -0.102615356445313, -0.102615356445313, None, 
1.306640625, -280, 0, 7, -0.1068115234375, -0.1068115234375, None, 
1.30859375, -289, 0, 7, -0.110244750976563, -0.110244750976563, None, 
1.310546875, -291, 2, 7, -0.111007690429688, -0.111007690429688, None, 
1.3125, -289, 0, 7, -0.110244750976563, -0.110244750976563, None, 
1.314453125, -279, 0, 7, -0.106430053710938, -0.106430053710938, None, 
1.31640625, -269, 0, 7, -0.102615356445313, -0.102615356445313, None, 
1.318359375, -256, 0, 7, -0.09765625, -0.09765625, None, 
1.3203125, -256, 0, 7, -0.09765625, -0.09765625, None, 
1.322265625, -264, 0, 7, -0.1007080078125, -0.1007080078125, None, 
1.32421875, -284, 0, 7, -0.10833740234375, -0.10833740234375, None, 
1.326171875, -300, 0, 7, -0.11444091796875, -0.11444091796875, None, 
1.328125, -306, 0, 7, -0.116729736328125, -0.116729736328125, None, 
1.330078125, -297, 0, 7, -0.113296508789063, -0.113296508789063, None, 
1.33203125, -279, 0, 7, -0.106430053710938, -0.106430053710938, None, 
1.333984375, -264, 0, 7, -0.1007080078125, -0.1007080078125, None, 
1.3359375, -263, 0, 7, -0.100326538085938, -0.100326538085938, None, 
1.337890625, -263, 0, 7, -0.100326538085938, -0.100326538085938, None, 
1.33984375, -276, 0, 7, -0.10528564453125, -0.10528564453125, None, 
1.341796875, -293, 2, 7, -0.111770629882813, -0.111770629882813, None, 
1.34375, -304, 0, 7, -0.115966796875, -0.115966796875, None, 
1.345703125, -309, 0, 7, -0.117874145507813, -0.117874145507813, None, 
1.34765625, -299, 0, 7, -0.114059448242188, -0.114059448242188, None, 
1.349609375, -277, 0, 7, -0.105667114257813, -0.105667114257813, None, 
1.3515625, -267, 0, 7, -0.101852416992188, -0.101852416992188, None, 
1.353515625, -260, 0, 7, -0.09918212890625, -0.09918212890625, None, 
1.35546875, -265, 0, 7, -0.101089477539063, -0.101089477539063, None, 
1.357421875, -279, 0, 7, -0.106430053710938, -0.106430053710938, None, 
1.359375, -286, 0, 7, -0.109100341796875, -0.109100341796875, None, 
1.361328125, -291, 0, 7, -0.111007690429688, -0.111007690429688, None, 
1.36328125, -290, 0, 7, -0.110626220703125, -0.110626220703125, None, 
1.365234375, -282, 0, 7, -0.107574462890625, -0.107574462890625, None, 
1.3671875, -275, 0, 7, -0.104904174804688, -0.104904174804688, None, 
1.369140625, -270, 0, 7, -0.102996826171875, -0.102996826171875, None, 
1.37109375, -272, 0, 7, -0.103759765625, -0.103759765625, None, 
1.373046875, -287, 2, 7, -0.109481811523438, -0.109481811523438, None, 
1.375, -305, 0, 7, -0.116348266601563, -0.116348266601563, None, 
1.376953125, -311, 0, 7, -0.118637084960938, -0.118637084960938, None, 
1.37890625, -306, 0, 7, -0.116729736328125, -0.116729736328125, None, 
1.380859375, -291, 0, 7, -0.111007690429688, -0.111007690429688, None, 
1.3828125, -272, 0, 7, -0.103759765625, -0.103759765625, None, 
1.384765625, -259, 0, 7, -0.0988006591796875, -0.0988006591796875, None, 
1.38671875, -256, 0, 7, -0.09765625, -0.09765625, None, 
1.388671875, -254, 0, 7, -0.096893310546875, -0.096893310546875, None, 
1.390625, -267, 0, 7, -0.101852416992188, -0.101852416992188, None, 
1.392578125, -277, 0, 7, -0.105667114257813, -0.105667114257813, None, 
1.39453125, -283, 0, 7, -0.107955932617188, -0.107955932617188, None, 
1.396484375, -283, 0, 7, -0.107955932617188, -0.107955932617188, None, 
1.3984375, -269, 0, 7, -0.102615356445313, -0.102615356445313, None, 
1.400390625, -257, 0, 7, -0.0980377197265625, -0.0980377197265625, None, 
1.40234375, -257, 0, 7, -0.0980377197265625, -0.0980377197265625, None, 
1.404296875, -260, 2, 7, -0.09918212890625, -0.09918212890625, None, 
1.40625, -277, 0, 7, -0.105667114257813, -0.105667114257813, None, 
1.408203125, -289, 0, 7, -0.110244750976563, -0.110244750976563, None, 
1.41015625, -295, 0, 7, -0.112533569335938, -0.112533569335938, None, 
1.412109375, -291, 0, 7, -0.111007690429688, -0.111007690429688, None, 
1.4140625, -279, 0, 7, -0.106430053710938, -0.106430053710938, None, 
1.416015625, -260, 0, 7, -0.09918212890625, -0.09918212890625, None, 
1.41796875, -242, 0, 7, -0.092315673828125, -0.092315673828125, None, 
1.419921875, -233, 0, 7, -0.0888824462890625, -0.0888824462890625, None, 
1.421875, -232, 0, 7, -0.0885009765625, -0.0885009765625, None, 
1.423828125, -246, 0, 7, -0.093841552734375, -0.093841552734375, None, 
1.42578125, -258, 0, 7, -0.098419189453125, -0.098419189453125, None, 
1.427734375, -260, 0, 7, -0.09918212890625, -0.09918212890625, None, 
1.4296875, -261, 0, 7, -0.0995635986328125, -0.0995635986328125, None, 
1.431640625, -254, 0, 7, -0.096893310546875, -0.096893310546875, None, 
1.43359375, -246, 0, 7, -0.093841552734375, -0.093841552734375, None, 
1.435546875, -250, 2, 7, -0.095367431640625, -0.095367431640625, None, 
1.4375, -249, 0, 7, -0.0949859619140625, -0.0949859619140625, None, 
1.439453125, -250, 0, 7, -0.095367431640625, -0.095367431640625, None, 
1.44140625, -258, 0, 7, -0.098419189453125, -0.098419189453125, None, 
1.443359375, -255, 0, 7, -0.0972747802734375, -0.0972747802734375, None, 
1.4453125, -249, 0, 7, -0.0949859619140625, -0.0949859619140625, None, 
1.447265625, -236, 0, 7, -0.09002685546875, -0.09002685546875, None, 
1.44921875, -215, 0, 7, -0.0820159912109375, -0.0820159912109375, None, 
1.451171875, -199, 0, 7, -0.0759124755859375, -0.0759124755859375, None, 
1.453125, -195, 0, 7, -0.0743865966796875, -0.0743865966796875, None, 
1.455078125, -200, 0, 7, -0.0762939453125, -0.0762939453125, None, 
1.45703125, -206, 0, 7, -0.078582763671875, -0.078582763671875, None, 
1.458984375, -208, 0, 7, -0.079345703125, -0.079345703125, None, 
1.4609375, -211, 0, 7, -0.0804901123046875, -0.0804901123046875, None, 
1.462890625, -208, 0, 7, -0.079345703125, -0.079345703125, None, 
1.46484375, -199, 0, 7, -0.0759124755859375, -0.0759124755859375, None, 
1.466796875, -190, 2, 7, -0.072479248046875, -0.072479248046875, None, 
1.46875, -184, 0, 7, -0.0701904296875, -0.0701904296875, None, 
1.470703125, -180, 0, 7, -0.06866455078125, -0.06866455078125, None, 
1.47265625, -184, 0, 7, -0.0701904296875, -0.0701904296875, None, 
1.474609375, -191, 0, 7, -0.0728607177734375, -0.0728607177734375, None, 
1.4765625, -193, 0, 7, -0.0736236572265625, -0.0736236572265625, None, 
1.478515625, -187, 0, 7, -0.0713348388671875, -0.0713348388671875, None, 
1.48046875, -172, 0, 7, -0.06561279296875, -0.06561279296875, None, 
1.482421875, -155, 0, 7, -0.0591278076171875, -0.0591278076171875, None, 
1.484375, -148, 0, 7, -0.05645751953125, -0.05645751953125, None, 
1.486328125, -147, 0, 7, -0.0560760498046875, -0.0560760498046875, None, 
1.48828125, -145, 0, 7, -0.0553131103515625, -0.0553131103515625, None, 
1.490234375, -155, 0, 7, -0.0591278076171875, -0.0591278076171875, None, 
1.4921875, -168, 0, 7, -0.0640869140625, -0.0640869140625, None, 
1.494140625, -174, 0, 7, -0.066375732421875, -0.066375732421875, None, 
1.49609375, -178, 0, 7, -0.067901611328125, -0.067901611328125, None, 
1.498046875, -167, 2, 7, -0.0637054443359375, -0.0637054443359375, None, 
1.5, -156, 0, 7, -0.05950927734375, -0.05950927734375, None, 
1.501953125, -153, 0, 7, -0.0583648681640625, -0.0583648681640625, None, 
1.50390625, -159, 0, 7, -0.0606536865234375, -0.0606536865234375, None, 
1.505859375, -172, 0, 7, -0.06561279296875, -0.06561279296875, None, 
1.5078125, -188, 0, 7, -0.07171630859375, -0.07171630859375, None, 
1.509765625, -197, 0, 7, -0.0751495361328125, -0.0751495361328125, None, 
1.51171875, -202, 0, 7, -0.077056884765625, -0.077056884765625, None, 
1.513671875, -200, 0, 7, -0.0762939453125, -0.0762939453125, None, 
1.515625, -193, 0, 7, -0.0736236572265625, -0.0736236572265625, None, 
1.517578125, -188, 0, 7, -0.07171630859375, -0.07171630859375, None, 
1.51953125, -186, 0, 7, -0.070953369140625, -0.070953369140625, None, 
1.521484375, -195, 0, 7, -0.0743865966796875, -0.0743865966796875, None, 
1.5234375, -218, 0, 7, -0.083160400390625, -0.083160400390625, None, 
1.525390625, -243, 0, 7, -0.0926971435546875, -0.0926971435546875, None, 
1.52734375, -258, 0, 7, -0.098419189453125, -0.098419189453125, None, 
1.529296875, -266, 2, 7, -0.101470947265625, -0.101470947265625, None, 
1.53125, -265, 0, 7, -0.101089477539063, -0.101089477539063, None, 
1.533203125, -260, 0, 7, -0.09918212890625, -0.09918212890625, None, 
1.53515625, -262, 0, 7, -0.099945068359375, -0.099945068359375, None, 
1.537109375, -269, 0, 7, -0.102615356445313, -0.102615356445313, None, 
1.5390625, -280, 0, 7, -0.1068115234375, -0.1068115234375, None, 
1.541015625, -299, 0, 7, -0.114059448242188, -0.114059448242188, None, 
1.54296875, -312, 0, 7, -0.1190185546875, -0.1190185546875, None, 
1.544921875, -326, 0, 7, -0.124359130859375, -0.124359130859375, None, 
1.546875, -325, 0, 7, -0.123977661132813, -0.123977661132813, None, 
1.548828125, -310, 0, 7, -0.118255615234375, -0.118255615234375, None, 
1.55078125, -296, 0, 7, -0.1129150390625, -0.1129150390625, None, 
1.552734375, -294, 0, 7, -0.112152099609375, -0.112152099609375, None, 
1.5546875, -301, 0, 7, -0.114822387695313, -0.114822387695313, None, 
1.556640625, -315, 0, 7, -0.120162963867188, -0.120162963867188, None, 
1.55859375, -333, 0, 7, -0.127029418945313, -0.127029418945313, None, 
1.560546875, -341, 2, 7, -0.130081176757813, -0.130081176757813, None, 
1.5625, -345, 0, 7, -0.131607055664063, -0.131607055664063, None, 
1.564453125, -338, 0, 7, -0.128936767578125, -0.128936767578125, None, 
1.56640625, -326, 0, 7, -0.124359130859375, -0.124359130859375, None, 
1.568359375, -316, 0, 7, -0.12054443359375, -0.12054443359375, None, 
1.5703125, -314, 0, 7, -0.119781494140625, -0.119781494140625, None, 
1.572265625, -325, 0, 7, -0.123977661132813, -0.123977661132813, None, 
1.57421875, -342, 0, 7, -0.130462646484375, -0.130462646484375, None, 
1.576171875, -358, 0, 7, -0.136566162109375, -0.136566162109375, None, 
1.578125, -363, 0, 7, -0.138473510742188, -0.138473510742188, None, 
1.580078125, -358, 0, 7, -0.136566162109375, -0.136566162109375, None, 
1.58203125, -340, 0, 7, -0.12969970703125, -0.12969970703125, None, 
1.583984375, -325, 0, 7, -0.123977661132813, -0.123977661132813, None, 
1.5859375, -317, 0, 7, -0.120925903320313, -0.120925903320313, None, 
1.587890625, -314, 0, 7, -0.119781494140625, -0.119781494140625, None, 
1.58984375, -324, 0, 7, -0.12359619140625, -0.12359619140625, None, 
1.591796875, -337, 2, 7, -0.128555297851563, -0.128555297851563, None, 
1.59375, -346, 0, 7, -0.131988525390625, -0.131988525390625, None, 
1.595703125, -352, 0, 7, -0.13427734375, -0.13427734375, None, 
1.59765625, -342, 0, 7, -0.130462646484375, -0.130462646484375, None, 
1.599609375, -323, 0, 7, -0.123214721679688, -0.123214721679688, None, 
1.6015625, -313, 0, 7, -0.119400024414063, -0.119400024414063, None, 
1.603515625, -309, 0, 7, -0.117874145507813, -0.117874145507813, None, 
1.60546875, -317, 0, 7, -0.120925903320313, -0.120925903320313, None, 
1.607421875, -330, 0, 7, -0.125885009765625, -0.125885009765625, None, 
1.609375, -337, 0, 7, -0.128555297851563, -0.128555297851563, None, 
1.611328125, -339, 0, 7, -0.129318237304688, -0.129318237304688, None, 
1.61328125, -331, 0, 7, -0.126266479492188, -0.126266479492188, None, 
1.615234375, -319, 0, 7, -0.121688842773438, -0.121688842773438, None, 
1.6171875, -309, 0, 7, -0.117874145507813, -0.117874145507813, None, 
1.619140625, -305, 0, 7, -0.116348266601563, -0.116348266601563, None, 
1.62109375, -311, 0, 7, -0.118637084960938, -0.118637084960938, None, 
1.623046875, -330, 2, 7, -0.125885009765625, -0.125885009765625, None, 
1.625, -347, 0, 7, -0.132369995117188, -0.132369995117188, None, 
1.626953125, -355, 0, 7, -0.135421752929688, -0.135421752929688, None, 
1.62890625, -351, 0, 7, -0.133895874023438, -0.133895874023438, None, 
1.630859375, -337, 0, 7, -0.128555297851563, -0.128555297851563, None, 
1.6328125, -318, 0, 7, -0.121307373046875, -0.121307373046875, None, 
1.634765625, -308, 0, 7, -0.11749267578125, -0.11749267578125, None, 
1.63671875, -306, 0, 7, -0.116729736328125, -0.116729736328125, None, 
1.638671875, -311, 0, 7, -0.118637084960938, -0.118637084960938, None, 
1.640625, -330, 0, 7, -0.125885009765625, -0.125885009765625, None, 
1.642578125, -339, 0, 7, -0.129318237304688, -0.129318237304688, None, 
1.64453125, -346, 0, 7, -0.131988525390625, -0.131988525390625, None, 
1.646484375, -341, 0, 7, -0.130081176757813, -0.130081176757813, None, 
1.6484375, -330, 0, 7, -0.125885009765625, -0.125885009765625, None, 
1.650390625, -320, 0, 7, -0.1220703125, -0.1220703125, None, 
1.65234375, -317, 0, 7, -0.120925903320313, -0.120925903320313, None, 
1.654296875, -323, 2, 7, -0.123214721679688, -0.123214721679688, None, 
1.65625, -340, 0, 7, -0.12969970703125, -0.12969970703125, None, 
1.658203125, -350, 0, 7, -0.133514404296875, -0.133514404296875, None, 
1.66015625, -359, 0, 7, -0.136947631835938, -0.136947631835938, None, 
1.662109375, -355, 0, 7, -0.135421752929688, -0.135421752929688, None, 
1.6640625, -346, 0, 7, -0.131988525390625, -0.131988525390625, None, 
1.666015625, -331, 0, 7, -0.126266479492188, -0.126266479492188, None, 
1.66796875, -314, 0, 7, -0.119781494140625, -0.119781494140625, None, 
1.669921875, -310, 0, 7, -0.118255615234375, -0.118255615234375, None, 
1.671875, -315, 0, 7, -0.120162963867188, -0.120162963867188, None, 
1.673828125, -330, 0, 7, -0.125885009765625, -0.125885009765625, None, 
1.67578125, -337, 0, 7, -0.128555297851563, -0.128555297851563, None, 
1.677734375, -339, 0, 7, -0.129318237304688, -0.129318237304688, None, 
1.6796875, -333, 0, 7, -0.127029418945313, -0.127029418945313, None, 
1.681640625, -320, 0, 7, -0.1220703125, -0.1220703125, None, 
1.68359375, -309, 0, 7, -0.117874145507813, -0.117874145507813, None, 
1.685546875, -313, 2, 7, -0.119400024414063, -0.119400024414063, None, 
1.6875, -316, 0, 7, -0.12054443359375, -0.12054443359375, None, 
1.689453125, -330, 0, 7, -0.125885009765625, -0.125885009765625, None, 
1.69140625, -342, 0, 7, -0.130462646484375, -0.130462646484375, None, 
1.693359375, -348, 0, 7, -0.13275146484375, -0.13275146484375, None, 
1.6953125, -346, 0, 7, -0.131988525390625, -0.131988525390625, None, 
1.697265625, -333, 0, 7, -0.127029418945313, -0.127029418945313, None, 
1.69921875, -309, 0, 7, -0.117874145507813, -0.117874145507813, None, 
1.701171875, -299, 0, 7, -0.114059448242188, -0.114059448242188, None, 
1.703125, -299, 0, 7, -0.114059448242188, -0.114059448242188, None, 
1.705078125, -307, 0, 7, -0.117111206054688, -0.117111206054688, None, 
1.70703125, -324, 0, 7, -0.12359619140625, -0.12359619140625, None, 
1.708984375, -338, 0, 7, -0.128936767578125, -0.128936767578125, None, 
1.7109375, -344, 0, 7, -0.1312255859375, -0.1312255859375, None, 
1.712890625, -346, 0, 7, -0.131988525390625, -0.131988525390625, None, 
1.71484375, -344, 0, 7, -0.1312255859375, -0.1312255859375, None, 
1.716796875, -329, 2, 7, -0.125503540039063, -0.125503540039063, None, 
1.71875, -322, 0, 7, -0.122833251953125, -0.122833251953125, None, 
1.720703125, -320, 0, 7, -0.1220703125, -0.1220703125, None, 
1.72265625, -329, 0, 7, -0.125503540039063, -0.125503540039063, None, 
1.724609375, -339, 0, 7, -0.129318237304688, -0.129318237304688, None, 
1.7265625, -346, 0, 7, -0.131988525390625, -0.131988525390625, None, 
1.728515625, -336, 0, 7, -0.128173828125, -0.128173828125, None, 
1.73046875, -322, 0, 7, -0.122833251953125, -0.122833251953125, None, 
1.732421875, -304, 0, 7, -0.115966796875, -0.115966796875, None, 
1.734375, -297, 0, 7, -0.113296508789063, -0.113296508789063, None, 
1.736328125, -298, 0, 7, -0.113677978515625, -0.113677978515625, None, 
1.73828125, -299, 0, 7, -0.114059448242188, -0.114059448242188, None, 
1.740234375, -311, 0, 7, -0.118637084960938, -0.118637084960938, None, 
1.7421875, -329, 0, 7, -0.125503540039063, -0.125503540039063, None, 
1.744140625, -341, 0, 7, -0.130081176757813, -0.130081176757813, None, 
1.74609375, -347, 0, 7, -0.132369995117188, -0.132369995117188, None, 
1.748046875, -336, 2, 7, -0.128173828125, -0.128173828125, None, 
1.75, -322, 0, 7, -0.122833251953125, -0.122833251953125, None, 
1.751953125, -315, 0, 7, -0.120162963867188, -0.120162963867188, None, 
1.75390625, -313, 0, 7, -0.119400024414063, -0.119400024414063, None, 
1.755859375, -320, 0, 7, -0.1220703125, -0.1220703125, None, 
1.7578125, -329, 0, 7, -0.125503540039063, -0.125503540039063, None, 
1.759765625, -334, 0, 7, -0.127410888671875, -0.127410888671875, None, 
1.76171875, -333, 0, 7, -0.127029418945313, -0.127029418945313, None, 
1.763671875, -329, 0, 7, -0.125503540039063, -0.125503540039063, None, 
1.765625, -322, 0, 7, -0.122833251953125, -0.122833251953125, None, 
1.767578125, -311, 0, 7, -0.118637084960938, -0.118637084960938, None, 
1.76953125, -304, 0, 7, -0.115966796875, -0.115966796875, None, 
1.771484375, -307, 0, 7, -0.117111206054688, -0.117111206054688, None, 
1.7734375, -322, 0, 7, -0.122833251953125, -0.122833251953125, None, 
1.775390625, -339, 0, 7, -0.129318237304688, -0.129318237304688, None, 
1.77734375, -347, 0, 7, -0.132369995117188, -0.132369995117188, None, 
1.779296875, -346, 2, 7, -0.131988525390625, -0.131988525390625, None, 
1.78125, -335, 0, 7, -0.127792358398438, -0.127792358398438, None, 
1.783203125, -323, 0, 7, -0.123214721679688, -0.123214721679688, None, 
1.78515625, -318, 0, 7, -0.121307373046875, -0.121307373046875, None, 
1.787109375, -315, 0, 7, -0.120162963867188, -0.120162963867188, None, 
1.7890625, -318, 0, 7, -0.121307373046875, -0.121307373046875, None, 
1.791015625, -333, 0, 7, -0.127029418945313, -0.127029418945313, None, 
1.79296875, -339, 0, 7, -0.129318237304688, -0.129318237304688, None, 
1.794921875, -345, 0, 7, -0.131607055664063, -0.131607055664063, None, 
1.796875, -337, 0, 7, -0.128555297851563, -0.128555297851563, None, 
1.798828125, -316, 0, 7, -0.12054443359375, -0.12054443359375, None, 
1.80078125, -299, 0, 7, -0.114059448242188, -0.114059448242188, None, 
1.802734375, -297, 0, 7, -0.113296508789063, -0.113296508789063, None, 
1.8046875, -303, 0, 7, -0.115585327148438, -0.115585327148438, None, 
1.806640625, -323, 0, 7, -0.123214721679688, -0.123214721679688, None, 
1.80859375, -338, 0, 7, -0.128936767578125, -0.128936767578125, None, 
1.810546875, -347, 2, 7, -0.132369995117188, -0.132369995117188, None, 
1.8125, -353, 0, 7, -0.134658813476563, -0.134658813476563, None, 
1.814453125, -347, 0, 7, -0.132369995117188, -0.132369995117188, None, 
1.81640625, -330, 0, 7, -0.125885009765625, -0.125885009765625, None, 
1.818359375, -317, 0, 7, -0.120925903320313, -0.120925903320313, None, 
1.8203125, -313, 0, 7, -0.119400024414063, -0.119400024414063, None, 
1.822265625, -317, 0, 7, -0.120925903320313, -0.120925903320313, None, 
1.82421875, -331, 0, 7, -0.126266479492188, -0.126266479492188, None, 
1.826171875, -341, 0, 7, -0.130081176757813, -0.130081176757813, None, 
1.828125, -343, 0, 7, -0.130844116210938, -0.130844116210938, None, 
1.830078125, -337, 0, 7, -0.128555297851563, -0.128555297851563, None, 
1.83203125, -321, 0, 7, -0.122451782226563, -0.122451782226563, None, 
1.833984375, -310, 0, 7, -0.118255615234375, -0.118255615234375, None, 
1.8359375, -315, 0, 7, -0.120162963867188, -0.120162963867188, None, 
1.837890625, -322, 0, 7, -0.122833251953125, -0.122833251953125, None, 
1.83984375, -336, 0, 7, -0.128173828125, -0.128173828125, None, 
1.841796875, -355, 2, 7, -0.135421752929688, -0.135421752929688, None, 
1.84375, -363, 0, 7, -0.138473510742188, -0.138473510742188, None, 
1.845703125, -362, 0, 7, -0.138092041015625, -0.138092041015625, None, 
1.84765625, -345, 0, 7, -0.131607055664063, -0.131607055664063, None, 
1.849609375, -322, 0, 7, -0.122833251953125, -0.122833251953125, None, 
1.8515625, -305, 0, 7, -0.116348266601563, -0.116348266601563, None, 
1.853515625, -302, 0, 7, -0.115203857421875, -0.115203857421875, None, 
1.85546875, -309, 0, 7, -0.117874145507813, -0.117874145507813, None, 
1.857421875, -322, 0, 7, -0.122833251953125, -0.122833251953125, None, 
1.859375, -335, 0, 7, -0.127792358398438, -0.127792358398438, None, 
1.861328125, -340, 0, 7, -0.12969970703125, -0.12969970703125, None, 
1.86328125, -335, 0, 7, -0.127792358398438, -0.127792358398438, None, 
1.865234375, -323, 0, 7, -0.123214721679688, -0.123214721679688, None, 
1.8671875, -314, 0, 7, -0.119781494140625, -0.119781494140625, None, 
1.869140625, -308, 0, 7, -0.11749267578125, -0.11749267578125, None, 
1.87109375, -314, 0, 7, -0.119781494140625, -0.119781494140625, None, 
1.873046875, -327, 2, 7, -0.124740600585938, -0.124740600585938, None, 
1.875, -348, 0, 7, -0.13275146484375, -0.13275146484375, None, 
1.876953125, -353, 0, 7, -0.134658813476563, -0.134658813476563, None, 
1.87890625, -347, 0, 7, -0.132369995117188, -0.132369995117188, None, 
1.880859375, -331, 0, 7, -0.126266479492188, -0.126266479492188, None, 
1.8828125, -313, 0, 7, -0.119400024414063, -0.119400024414063, None, 
1.884765625, -307, 0, 7, -0.117111206054688, -0.117111206054688, None, 
1.88671875, -302, 0, 7, -0.115203857421875, -0.115203857421875, None, 
1.888671875, -307, 0, 7, -0.117111206054688, -0.117111206054688, None, 
1.890625, -325, 0, 7, -0.123977661132813, -0.123977661132813, None, 
1.892578125, -335, 0, 7, -0.127792358398438, -0.127792358398438, None, 
1.89453125, -338, 0, 7, -0.128936767578125, -0.128936767578125, None, 
1.896484375, -335, 0, 7, -0.127792358398438, -0.127792358398438, None, 
1.8984375, -316, 0, 7, -0.12054443359375, -0.12054443359375, None, 
1.900390625, -305, 0, 7, -0.116348266601563, -0.116348266601563, None, 
1.90234375, -301, 0, 7, -0.114822387695313, -0.114822387695313, None, 
1.904296875, -308, 2, 7, -0.11749267578125, -0.11749267578125, None, 
1.90625, -324, 0, 7, -0.12359619140625, -0.12359619140625, None, 
1.908203125, -335, 0, 7, -0.127792358398438, -0.127792358398438, None, 
1.91015625, -335, 0, 7, -0.127792358398438, -0.127792358398438, None, 
1.912109375, -332, 0, 7, -0.12664794921875, -0.12664794921875, None, 
1.9140625, -321, 0, 7, -0.122451782226563, -0.122451782226563, None, 
1.916015625, -300, 0, 7, -0.11444091796875, -0.11444091796875, None, 
1.91796875, -286, 0, 7, -0.109100341796875, -0.109100341796875, None, 
1.919921875, -281, 0, 7, -0.107192993164063, -0.107192993164063, None, 
1.921875, -291, 0, 7, -0.111007690429688, -0.111007690429688, None, 
1.923828125, -313, 0, 7, -0.119400024414063, -0.119400024414063, None, 
1.92578125, -325, 0, 7, -0.123977661132813, -0.123977661132813, None, 
1.927734375, -328, 0, 7, -0.1251220703125, -0.1251220703125, None, 
1.9296875, -322, 0, 7, -0.122833251953125, -0.122833251953125, None, 
1.931640625, -312, 0, 7, -0.1190185546875, -0.1190185546875, None, 
1.93359375, -303, 0, 7, -0.115585327148438, -0.115585327148438, None, 
1.935546875, -306, 2, 7, -0.116729736328125, -0.116729736328125, None, 
1.9375, -305, 0, 7, -0.116348266601563, -0.116348266601563, None, 
1.939453125, -316, 0, 7, -0.12054443359375, -0.12054443359375, None, 
1.94140625, -332, 0, 7, -0.12664794921875, -0.12664794921875, None, 
1.943359375, -339, 0, 7, -0.129318237304688, -0.129318237304688, None, 
1.9453125, -340, 0, 7, -0.12969970703125, -0.12969970703125, None, 
1.947265625, -329, 0, 7, -0.125503540039063, -0.125503540039063, None, 
1.94921875, -308, 0, 7, -0.11749267578125, -0.11749267578125, None, 
1.951171875, -297, 0, 7, -0.113296508789063, -0.113296508789063, None, 
1.953125, -295, 0, 7, -0.112533569335938, -0.112533569335938, None, 
1.955078125, -302, 0, 7, -0.115203857421875, -0.115203857421875, None, 
1.95703125, -315, 0, 7, -0.120162963867188, -0.120162963867188, None, 
1.958984375, -320, 0, 7, -0.1220703125, -0.1220703125, None, 
1.9609375, -324, 0, 7, -0.12359619140625, -0.12359619140625, None, 
1.962890625, -324, 0, 7, -0.12359619140625, -0.12359619140625, None, 
1.96484375, -316, 0, 7, -0.12054443359375, -0.12054443359375, None, 
1.966796875, -304, 2, 7, -0.115966796875, -0.115966796875, None, 
1.96875, -299, 0, 7, -0.114059448242188, -0.114059448242188, None, 
1.970703125, -299, 0, 7, -0.114059448242188, -0.114059448242188, None, 
1.97265625, -310, 0, 7, -0.118255615234375, -0.118255615234375, None, 
1.974609375, -331, 0, 7, -0.126266479492188, -0.126266479492188, None, 
1.9765625, -342, 0, 7, -0.130462646484375, -0.130462646484375, None, 
1.978515625, -346, 0, 7, -0.131988525390625, -0.131988525390625, None, 
1.98046875, -342, 0, 7, -0.130462646484375, -0.130462646484375, None, 
1.982421875, -332, 0, 7, -0.12664794921875, -0.12664794921875, None, 
1.984375, -330, 0, 7, -0.125885009765625, -0.125885009765625, None, 
1.986328125, -329, 0, 7, -0.125503540039063, -0.125503540039063, None, 
1.98828125, -325, 0, 7, -0.123977661132813, -0.123977661132813, None, 
1.990234375, -337, 0, 7, -0.128555297851563, -0.128555297851563, None, 
1.9921875, -350, 0, 7, -0.133514404296875, -0.133514404296875, None, 
1.994140625, -365, 0, 7, -0.139236450195313, -0.139236450195313, None, 
1.99609375, -372, 0, 7, -0.14190673828125, -0.14190673828125, None, 
1.998046875, -364, 2, 7, -0.13885498046875, -0.13885498046875, None, 
2, -355, 0, 7, -0.135421752929688, -0.135421752929688, None, 
2.001953125, -351, 0, 7, -0.133895874023438, -0.133895874023438, None, 
2.00390625, -354, 0, 7, -0.135040283203125, -0.135040283203125, None, 
2.005859375, -364, 0, 7, -0.13885498046875, -0.13885498046875, None, 
2.0078125, -372, 0, 7, -0.14190673828125, -0.14190673828125, None, 
2.009765625, -378, 0, 7, -0.144195556640625, -0.144195556640625, None, 
2.01171875, -375, 0, 7, -0.143051147460938, -0.143051147460938, None, 
2.013671875, -373, 0, 7, -0.142288208007813, -0.142288208007813, None, 
2.015625, -365, 0, 7, -0.139236450195313, -0.139236450195313, None, 
2.017578125, -353, 0, 7, -0.134658813476563, -0.134658813476563, None, 
2.01953125, -346, 0, 7, -0.131988525390625, -0.131988525390625, None, 
2.021484375, -350, 0, 7, -0.133514404296875, -0.133514404296875, None, 
2.0234375, -366, 0, 7, -0.139617919921875, -0.139617919921875, None, 
2.025390625, -384, 0, 7, -0.146484375, -0.146484375, None, 
2.02734375, -389, 0, 7, -0.148391723632813, -0.148391723632813, None, 
2.029296875, -385, 2, 7, -0.146865844726563, -0.146865844726563, None, 
2.03125, -374, 0, 7, -0.142669677734375, -0.142669677734375, None, 
2.033203125, -364, 0, 7, -0.13885498046875, -0.13885498046875, None, 
2.03515625, -362, 0, 7, -0.138092041015625, -0.138092041015625, None, 
2.037109375, -361, 0, 7, -0.137710571289063, -0.137710571289063, None, 
2.0390625, -363, 0, 7, -0.138473510742188, -0.138473510742188, None, 
2.041015625, -377, 0, 7, -0.143814086914063, -0.143814086914063, None, 
2.04296875, -379, 0, 7, -0.144577026367188, -0.144577026367188, None, 
2.044921875, -382, 0, 7, -0.145721435546875, -0.145721435546875, None, 
2.046875, -373, 0, 7, -0.142288208007813, -0.142288208007813, None, 
2.048828125, -351, 0, 7, -0.133895874023438, -0.133895874023438, None, 
2.05078125, -336, 0, 7, -0.128173828125, -0.128173828125, None, 
2.052734375, -331, 0, 7, -0.126266479492188, -0.126266479492188, None, 
2.0546875, -343, 0, 7, -0.130844116210938, -0.130844116210938, None, 
2.056640625, -356, 0, 7, -0.13580322265625, -0.13580322265625, None, 
2.05859375, -370, 0, 7, -0.141143798828125, -0.141143798828125, None, 
2.060546875, -369, 2, 7, -0.140762329101563, -0.140762329101563, None, 
2.0625, -355, 0, 7, -0.135421752929688, -0.135421752929688, None, 
2.064453125, -323, 0, 7, -0.123214721679688, -0.123214721679688, None, 
2.06640625, -274, 0, 7, -0.104522705078125, -0.104522705078125, None, 
2.068359375, -215, 0, 7, -0.0820159912109375, -0.0820159912109375, None, 
2.0703125, -150, 0, 7, -0.057220458984375, -0.057220458984375, None, 
2.072265625, -81, 0, 7, -0.0308990478515625, -0.0308990478515625, None, 
2.07421875, -16, 0, 7, -0.006103515625, -0.006103515625, None, 
2.076171875, 67, 0, 7, 0.0255584716796875, 0.0255584716796875, None, 
2.078125, 158, 0, 7, 0.060272216796875, 0.060272216796875, None, 
2.080078125, 256, 0, 7, 0.09765625, 0.09765625, None, 
2.08203125, 345, 0, 7, 0.131607055664063, 0.131607055664063, None, 
2.083984375, 394, 0, 7, 0.150299072265625, 0.150299072265625, None, 
2.0859375, 396, 0, 7, 0.15106201171875, 0.15106201171875, None, 
2.087890625, 353, 0, 7, 0.134658813476563, 0.134658813476563, None, 
2.08984375, 259, 0, 7, 0.0988006591796875, 0.0988006591796875, None, 
2.091796875, 125, 2, 7, 0.0476837158203125, 0.0476837158203125, None, 
2.09375, -15, 0, 7, -0.0057220458984375, -0.0057220458984375, None, 
2.095703125, -160, 0, 7, -0.06103515625, -0.06103515625, None, 
2.09765625, -270, 0, 7, -0.102996826171875, -0.102996826171875, None, 
2.099609375, -355, 0, 7, -0.135421752929688, -0.135421752929688, None, 
2.1015625, -419, 0, 7, -0.159835815429688, -0.159835815429688, None, 
2.103515625, -466, 0, 7, -0.177764892578125, -0.177764892578125, None, 
2.10546875, -497, 0, 7, -0.189590454101563, -0.189590454101563, None, 
2.107421875, -518, 0, 7, -0.197601318359375, -0.197601318359375, None, 
2.109375, -520, 0, 7, -0.1983642578125, -0.1983642578125, None, 
2.111328125, -508, 0, 7, -0.19378662109375, -0.19378662109375, None, 
2.11328125, -485, 0, 7, -0.185012817382813, -0.185012817382813, None, 
2.115234375, -456, 0, 7, -0.1739501953125, -0.1739501953125, None, 
2.1171875, -429, 0, 7, -0.163650512695313, -0.163650512695313, None, 
2.119140625, -405, 0, 7, -0.154495239257813, -0.154495239257813, None, 
2.12109375, -397, 0, 7, -0.151443481445313, -0.151443481445313, None, 
2.123046875, -402, 2, 7, -0.153350830078125, -0.153350830078125, None, 
2.125, -413, 0, 7, -0.157546997070313, -0.157546997070313, None, 
2.126953125, -411, 0, 7, -0.156784057617188, -0.156784057617188, None, 
2.12890625, -403, 0, 7, -0.153732299804688, -0.153732299804688, None, 
2.130859375, -381, 0, 7, -0.145339965820313, -0.145339965820313, None, 
2.1328125, -356, 0, 7, -0.13580322265625, -0.13580322265625, None, 
2.134765625, -339, 0, 7, -0.129318237304688, -0.129318237304688, None, 
2.13671875, -327, 0, 7, -0.124740600585938, -0.124740600585938, None, 
2.138671875, -325, 0, 7, -0.123977661132813, -0.123977661132813, None, 
2.140625, -337, 0, 7, -0.128555297851563, -0.128555297851563, None, 
2.142578125, -345, 0, 7, -0.131607055664063, -0.131607055664063, None, 
2.14453125, -352, 0, 7, -0.13427734375, -0.13427734375, None, 
2.146484375, -350, 0, 7, -0.133514404296875, -0.133514404296875, None, 
2.1484375, -336, 0, 7, -0.128173828125, -0.128173828125, None, 
2.150390625, -328, 0, 7, -0.1251220703125, -0.1251220703125, None, 
2.15234375, -331, 0, 7, -0.126266479492188, -0.126266479492188, None, 
2.154296875, -339, 2, 7, -0.129318237304688, -0.129318237304688, None, 
2.15625, -354, 0, 7, -0.135040283203125, -0.135040283203125, None, 
2.158203125, -368, 0, 7, -0.140380859375, -0.140380859375, None, 
2.16015625, -367, 0, 7, -0.139999389648438, -0.139999389648438, None, 
2.162109375, -356, 0, 7, -0.13580322265625, -0.13580322265625, None, 
2.1640625, -339, 0, 7, -0.129318237304688, -0.129318237304688, None, 
2.166015625, -314, 0, 7, -0.119781494140625, -0.119781494140625, None, 
2.16796875, -294, 0, 7, -0.112152099609375, -0.112152099609375, None, 
2.169921875, -288, 0, 7, -0.10986328125, -0.10986328125, None, 
2.171875, -292, 0, 7, -0.11138916015625, -0.11138916015625, None, 
2.173828125, -311, 0, 7, -0.118637084960938, -0.118637084960938, None, 
2.17578125, -322, 0, 7, -0.122833251953125, -0.122833251953125, None, 
2.177734375, -323, 0, 7, -0.123214721679688, -0.123214721679688, None, 
2.1796875, -324, 0, 7, -0.12359619140625, -0.12359619140625, None, 
2.181640625, -313, 0, 7, -0.119400024414063, -0.119400024414063, None, 
2.18359375, -303, 0, 7, -0.115585327148438, -0.115585327148438, None, 
2.185546875, -301, 2, 7, -0.114822387695313, -0.114822387695313, None, 
2.1875, -303, 0, 7, -0.115585327148438, -0.115585327148438, None, 
2.189453125, -310, 0, 7, -0.118255615234375, -0.118255615234375, None, 
2.19140625, -322, 0, 7, -0.122833251953125, -0.122833251953125, None, 
2.193359375, -321, 0, 7, -0.122451782226563, -0.122451782226563, None, 
2.1953125, -317, 0, 7, -0.120925903320313, -0.120925903320313, None, 
2.197265625, -309, 0, 7, -0.117874145507813, -0.117874145507813, None, 
2.19921875, -289, 0, 7, -0.110244750976563, -0.110244750976563, None, 
2.201171875, -279, 0, 7, -0.106430053710938, -0.106430053710938, None, 
2.203125, -280, 0, 7, -0.1068115234375, -0.1068115234375, None, 
2.205078125, -283, 0, 7, -0.107955932617188, -0.107955932617188, None, 
2.20703125, -289, 0, 7, -0.110244750976563, -0.110244750976563, None, 
2.208984375, -297, 0, 7, -0.113296508789063, -0.113296508789063, None, 
2.2109375, -301, 0, 7, -0.114822387695313, -0.114822387695313, None, 
2.212890625, -301, 0, 7, -0.114822387695313, -0.114822387695313, None, 
2.21484375, -293, 0, 7, -0.111770629882813, -0.111770629882813, None, 
2.216796875, -285, 2, 7, -0.108718872070313, -0.108718872070313, None, 
2.21875, -284, 0, 7, -0.10833740234375, -0.10833740234375, None, 
2.220703125, -288, 0, 7, -0.10986328125, -0.10986328125, None, 
2.22265625, -298, 0, 7, -0.113677978515625, -0.113677978515625, None, 
2.224609375, -311, 0, 7, -0.118637084960938, -0.118637084960938, None, 
2.2265625, -315, 0, 7, -0.120162963867188, -0.120162963867188, None, 
2.228515625, -312, 0, 7, -0.1190185546875, -0.1190185546875, None, 
2.23046875, -299, 0, 7, -0.114059448242188, -0.114059448242188, None, 
2.232421875, -285, 0, 7, -0.108718872070313, -0.108718872070313, None, 
2.234375, -277, 0, 7, -0.105667114257813, -0.105667114257813, None, 
2.236328125, -274, 0, 7, -0.104522705078125, -0.104522705078125, None, 
2.23828125, -275, 0, 7, -0.104904174804688, -0.104904174804688, None, 
2.240234375, -288, 0, 7, -0.10986328125, -0.10986328125, None, 
2.2421875, -302, 0, 7, -0.115203857421875, -0.115203857421875, None, 
2.244140625, -311, 0, 7, -0.118637084960938, -0.118637084960938, None, 
2.24609375, -316, 0, 7, -0.12054443359375, -0.12054443359375, None, 
2.248046875, -309, 2, 7, -0.117874145507813, -0.117874145507813, None, 
2.25, -300, 0, 7, -0.11444091796875, -0.11444091796875, None, 
2.251953125, -295, 0, 7, -0.112533569335938, -0.112533569335938, None, 
2.25390625, -294, 0, 7, -0.112152099609375, -0.112152099609375, None, 
2.255859375, -298, 0, 7, -0.113677978515625, -0.113677978515625, None, 
2.2578125, -306, 0, 7, -0.116729736328125, -0.116729736328125, None, 
2.259765625, -306, 0, 7, -0.116729736328125, -0.116729736328125, None, 
2.26171875, -303, 0, 7, -0.115585327148438, -0.115585327148438, None, 
2.263671875, -294, 0, 7, -0.112152099609375, -0.112152099609375, None, 
2.265625, -278, 0, 7, -0.106048583984375, -0.106048583984375, None, 
2.267578125, -268, 0, 7, -0.10223388671875, -0.10223388671875, None, 
2.26953125, -264, 0, 7, -0.1007080078125, -0.1007080078125, None, 
2.271484375, -266, 0, 7, -0.101470947265625, -0.101470947265625, None, 
2.2734375, -283, 0, 7, -0.107955932617188, -0.107955932617188, None, 
2.275390625, -295, 0, 7, -0.112533569335938, -0.112533569335938, None, 
2.27734375, -303, 0, 7, -0.115585327148438, -0.115585327148438, None, 
2.279296875, -302, 2, 7, -0.115203857421875, -0.115203857421875, None, 
2.28125, -291, 0, 7, -0.111007690429688, -0.111007690429688, None, 
2.283203125, -273, 0, 7, -0.104141235351563, -0.104141235351563, None, 
2.28515625, -263, 0, 7, -0.100326538085938, -0.100326538085938, None, 
2.287109375, -256, 0, 7, -0.09765625, -0.09765625, None, 
2.2890625, -262, 0, 7, -0.099945068359375, -0.099945068359375, None, 
2.291015625, -271, 0, 7, -0.103378295898438, -0.103378295898438, None, 
2.29296875, -276, 0, 7, -0.10528564453125, -0.10528564453125, None, 
2.294921875, -274, 0, 7, -0.104522705078125, -0.104522705078125, None, 
2.296875, -270, 0, 7, -0.102996826171875, -0.102996826171875, None, 
2.298828125, -253, 0, 7, -0.0965118408203125, -0.0965118408203125, None, 
2.30078125, -235, 0, 7, -0.0896453857421875, -0.0896453857421875, None, 
2.302734375, -227, 0, 7, -0.0865936279296875, -0.0865936279296875, None, 
2.3046875, -233, 0, 7, -0.0888824462890625, -0.0888824462890625, None, 
2.306640625, -244, 0, 7, -0.09307861328125, -0.09307861328125, None, 
2.30859375, -257, 0, 7, -0.0980377197265625, -0.0980377197265625, None, 
2.310546875, -264, 2, 7, -0.1007080078125, -0.1007080078125, None, 
2.3125, -264, 0, 7, -0.1007080078125, -0.1007080078125, None, 
2.314453125, -248, 0, 7, -0.0946044921875, -0.0946044921875, None, 
2.31640625, -228, 0, 7, -0.08697509765625, -0.08697509765625, None, 
2.318359375, -212, 0, 7, -0.08087158203125, -0.08087158203125, None, 
2.3203125, -205, 0, 7, -0.0782012939453125, -0.0782012939453125, None, 
2.322265625, -208, 0, 7, -0.079345703125, -0.079345703125, None, 
2.32421875, -219, 0, 7, -0.0835418701171875, -0.0835418701171875, None, 
2.326171875, -228, 0, 7, -0.08697509765625, -0.08697509765625, None, 
2.328125, -232, 0, 7, -0.0885009765625, -0.0885009765625, None, 
2.330078125, -225, 0, 7, -0.0858306884765625, -0.0858306884765625, None, 
2.33203125, -209, 0, 7, -0.0797271728515625, -0.0797271728515625, None, 
2.333984375, -190, 0, 7, -0.072479248046875, -0.072479248046875, None, 
2.3359375, -178, 0, 7, -0.067901611328125, -0.067901611328125, None, 
2.337890625, -175, 0, 7, -0.0667572021484375, -0.0667572021484375, None, 
2.33984375, -183, 0, 7, -0.0698089599609375, -0.0698089599609375, None, 
2.341796875, -194, 2, 7, -0.074005126953125, -0.074005126953125, None, 
2.34375, -201, 0, 7, -0.0766754150390625, -0.0766754150390625, None, 
2.345703125, -199, 0, 7, -0.0759124755859375, -0.0759124755859375, None, 
2.34765625, -188, 0, 7, -0.07171630859375, -0.07171630859375, None, 
2.349609375, -171, 0, 7, -0.0652313232421875, -0.0652313232421875, None, 
2.3515625, -161, 0, 7, -0.0614166259765625, -0.0614166259765625, None, 
2.353515625, -156, 0, 7, -0.05950927734375, -0.05950927734375, None, 
2.35546875, -163, 0, 7, -0.0621795654296875, -0.0621795654296875, None, 
2.357421875, -179, 0, 7, -0.0682830810546875, -0.0682830810546875, None, 
2.359375, -190, 0, 7, -0.072479248046875, -0.072479248046875, None, 
2.361328125, -203, 0, 7, -0.0774383544921875, -0.0774383544921875, None, 
2.36328125, -200, 0, 7, -0.0762939453125, -0.0762939453125, None, 
2.365234375, -189, 0, 7, -0.0720977783203125, -0.0720977783203125, None, 
2.3671875, -187, 0, 7, -0.0713348388671875, -0.0713348388671875, None, 
2.369140625, -192, 0, 7, -0.0732421875, -0.0732421875, None, 
2.37109375, -203, 0, 7, -0.0774383544921875, -0.0774383544921875, None, 
2.373046875, -226, 2, 7, -0.086212158203125, -0.086212158203125, None, 
2.375, -248, 0, 7, -0.0946044921875, -0.0946044921875, None, 
2.376953125, -257, 0, 7, -0.0980377197265625, -0.0980377197265625, None, 
2.37890625, -263, 0, 7, -0.100326538085938, -0.100326538085938, None, 
2.380859375, -254, 0, 7, -0.096893310546875, -0.096893310546875, None, 
2.3828125, -239, 0, 7, -0.0911712646484375, -0.0911712646484375, None, 
2.384765625, -233, 0, 7, -0.0888824462890625, -0.0888824462890625, None, 
2.38671875, -234, 0, 7, -0.089263916015625, -0.089263916015625, None, 
2.388671875, -244, 0, 7, -0.09307861328125, -0.09307861328125, None, 
2.390625, -269, 0, 7, -0.102615356445313, -0.102615356445313, None, 
2.392578125, -288, 0, 7, -0.10986328125, -0.10986328125, None, 
2.39453125, -294, 0, 7, -0.112152099609375, -0.112152099609375, None, 
2.396484375, -295, 0, 7, -0.112533569335938, -0.112533569335938, None, 
2.3984375, -292, 0, 7, -0.11138916015625, -0.11138916015625, None, 
2.400390625, -285, 0, 7, -0.108718872070313, -0.108718872070313, None, 
2.40234375, -290, 0, 7, -0.110626220703125, -0.110626220703125, None, 
2.404296875, -301, 2, 7, -0.114822387695313, -0.114822387695313, None, 
2.40625, -318, 0, 7, -0.121307373046875, -0.121307373046875, None, 
2.408203125, -336, 0, 7, -0.128173828125, -0.128173828125, None, 
2.41015625, -344, 0, 7, -0.1312255859375, -0.1312255859375, None, 
2.412109375, -342, 0, 7, -0.130462646484375, -0.130462646484375, None, 
2.4140625, -330, 0, 7, -0.125885009765625, -0.125885009765625, None, 
2.416015625, -314, 0, 7, -0.119781494140625, -0.119781494140625, None, 
2.41796875, -306, 0, 7, -0.116729736328125, -0.116729736328125, None, 
2.419921875, -305, 0, 7, -0.116348266601563, -0.116348266601563, None, 
2.421875, -320, 0, 7, -0.1220703125, -0.1220703125, None, 
2.423828125, -338, 0, 7, -0.128936767578125, -0.128936767578125, None, 
2.42578125, -347, 0, 7, -0.132369995117188, -0.132369995117188, None, 
2.427734375, -349, 0, 7, -0.133132934570313, -0.133132934570313, None, 
2.4296875, -348, 0, 7, -0.13275146484375, -0.13275146484375, None, 
2.431640625, -334, 0, 7, -0.127410888671875, -0.127410888671875, None, 
2.43359375, -322, 0, 7, -0.122833251953125, -0.122833251953125, None, 
2.435546875, -318, 2, 7, -0.121307373046875, -0.121307373046875, None, 
2.4375, -320, 0, 7, -0.1220703125, -0.1220703125, None, 
2.439453125, -336, 0, 7, -0.128173828125, -0.128173828125, None, 
2.44140625, -351, 0, 7, -0.133895874023438, -0.133895874023438, None, 
2.443359375, -358, 0, 7, -0.136566162109375, -0.136566162109375, None, 
2.4453125, -363, 0, 7, -0.138473510742188, -0.138473510742188, None, 
2.447265625, -353, 0, 7, -0.134658813476563, -0.134658813476563, None, 
2.44921875, -334, 0, 7, -0.127410888671875, -0.127410888671875, None, 
2.451171875, -320, 0, 7, -0.1220703125, -0.1220703125, None, 
2.453125, -314, 0, 7, -0.119781494140625, -0.119781494140625, None, 
2.455078125, -313, 0, 7, -0.119400024414063, -0.119400024414063, None, 
2.45703125, -325, 0, 7, -0.123977661132813, -0.123977661132813, None, 
2.458984375, -331, 0, 7, -0.126266479492188, -0.126266479492188, None, 
2.4609375, -334, 0, 7, -0.127410888671875, -0.127410888671875, None, 
2.462890625, -337, 0, 7, -0.128555297851563, -0.128555297851563, None, 
2.46484375, -326, 0, 7, -0.124359130859375, -0.124359130859375, None, 
2.466796875, -318, 2, 7, -0.121307373046875, -0.121307373046875, None, 
2.46875, -317, 0, 7, -0.120925903320313, -0.120925903320313, None, 
2.470703125, -319, 0, 7, -0.121688842773438, -0.121688842773438, None, 
2.47265625, -329, 0, 7, -0.125503540039063, -0.125503540039063, None, 
2.474609375, -339, 0, 7, -0.129318237304688, -0.129318237304688, None, 
2.4765625, -341, 0, 7, -0.130081176757813, -0.130081176757813, None, 
2.478515625, -341, 0, 7, -0.130081176757813, -0.130081176757813, None, 
2.48046875, -326, 0, 7, -0.124359130859375, -0.124359130859375, None, 
2.482421875, -309, 0, 7, -0.117874145507813, -0.117874145507813, None, 
2.484375, -300, 0, 7, -0.11444091796875, -0.11444091796875, None, 
2.486328125, -298, 0, 7, -0.113677978515625, -0.113677978515625, None, 
2.48828125, -300, 0, 7, -0.11444091796875, -0.11444091796875, None, 
2.490234375, -316, 0, 7, -0.12054443359375, -0.12054443359375, None, 
2.4921875, -330, 0, 7, -0.125885009765625, -0.125885009765625, None, 
2.494140625, -339, 0, 7, -0.129318237304688, -0.129318237304688, None, 
2.49609375, -343, 0, 7, -0.130844116210938, -0.130844116210938, None, 
2.498046875, -337, 2, 7, -0.128555297851563, -0.128555297851563, None, 
2.5, -325, 0, 7, -0.123977661132813, -0.123977661132813, None, 
2.501953125, -318, 0, 7, -0.121307373046875, -0.121307373046875, None, 
2.50390625, -313, 0, 7, -0.119400024414063, -0.119400024414063, None, 
2.505859375, -316, 0, 7, -0.12054443359375, -0.12054443359375, None, 
2.5078125, -326, 0, 7, -0.124359130859375, -0.124359130859375, None, 
2.509765625, -332, 0, 7, -0.12664794921875, -0.12664794921875, None, 
2.51171875, -331, 0, 7, -0.126266479492188, -0.126266479492188, None, 
2.513671875, -329, 0, 7, -0.125503540039063, -0.125503540039063, None, 
2.515625, -318, 0, 7, -0.121307373046875, -0.121307373046875, None, 
2.517578125, -310, 0, 7, -0.118255615234375, -0.118255615234375, None, 
2.51953125, -307, 0, 7, -0.117111206054688, -0.117111206054688, None, 
2.521484375, -312, 0, 7, -0.1190185546875, -0.1190185546875, None, 
2.5234375, -326, 0, 7, -0.124359130859375, -0.124359130859375, None, 
2.525390625, -338, 0, 7, -0.128936767578125, -0.128936767578125, None, 
2.52734375, -342, 0, 7, -0.130462646484375, -0.130462646484375, None, 
2.529296875, -344, 2, 7, -0.1312255859375, -0.1312255859375, None, 
2.53125, -335, 0, 7, -0.127792358398438, -0.127792358398438, None, 
2.533203125, -318, 0, 7, -0.121307373046875, -0.121307373046875, None, 
2.53515625, -311, 0, 7, -0.118637084960938, -0.118637084960938, None, 
2.537109375, -305, 0, 7, -0.116348266601563, -0.116348266601563, None, 
2.5390625, -311, 0, 7, -0.118637084960938, -0.118637084960938, None, 
2.541015625, -323, 0, 7, -0.123214721679688, -0.123214721679688, None, 
2.54296875, -325, 0, 7, -0.123977661132813, -0.123977661132813, None, 
2.544921875, -327, 0, 7, -0.124740600585938, -0.124740600585938, None, 
2.546875, -321, 0, 7, -0.122451782226563, -0.122451782226563, None, 
2.548828125, -305, 0, 7, -0.116348266601563, -0.116348266601563, None, 
2.55078125, -292, 0, 7, -0.11138916015625, -0.11138916015625, None, 
2.552734375, -286, 0, 7, -0.109100341796875, -0.109100341796875, None, 
2.5546875, -292, 0, 7, -0.11138916015625, -0.11138916015625, None, 
2.556640625, -310, 0, 7, -0.118255615234375, -0.118255615234375, None, 
2.55859375, -327, 0, 7, -0.124740600585938, -0.124740600585938, None, 
2.560546875, -335, 2, 7, -0.127792358398438, -0.127792358398438, None, 
2.5625, -337, 0, 7, -0.128555297851563, -0.128555297851563, None, 
2.564453125, -324, 0, 7, -0.12359619140625, -0.12359619140625, None, 
2.56640625, -301, 0, 7, -0.114822387695313, -0.114822387695313, None, 
2.568359375, -290, 0, 7, -0.110626220703125, -0.110626220703125, None, 
2.5703125, -280, 0, 7, -0.1068115234375, -0.1068115234375, None, 
2.572265625, -285, 0, 7, -0.108718872070313, -0.108718872070313, None, 
2.57421875, -297, 0, 7, -0.113296508789063, -0.113296508789063, None, 
2.576171875, -305, 0, 7, -0.116348266601563, -0.116348266601563, None, 
2.578125, -313, 0, 7, -0.119400024414063, -0.119400024414063, None, 
2.580078125, -311, 0, 7, -0.118637084960938, -0.118637084960938, None, 
2.58203125, -295, 0, 7, -0.112533569335938, -0.112533569335938, None, 
2.583984375, -282, 0, 7, -0.107574462890625, -0.107574462890625, None, 
2.5859375, -278, 0, 7, -0.106048583984375, -0.106048583984375, None, 
2.587890625, -282, 0, 7, -0.107574462890625, -0.107574462890625, None, 
2.58984375, -297, 0, 7, -0.113296508789063, -0.113296508789063, None, 
2.591796875, -311, 2, 7, -0.118637084960938, -0.118637084960938, None, 
2.59375, -319, 0, 7, -0.121688842773438, -0.121688842773438, None, 
2.595703125, -322, 0, 7, -0.122833251953125, -0.122833251953125, None, 
2.59765625, -309, 0, 7, -0.117874145507813, -0.117874145507813, None, 
2.599609375, -295, 0, 7, -0.112533569335938, -0.112533569335938, None, 
2.6015625, -286, 0, 7, -0.109100341796875, -0.109100341796875, None, 
2.603515625, -285, 0, 7, -0.108718872070313, -0.108718872070313, None, 
2.60546875, -291, 0, 7, -0.111007690429688, -0.111007690429688, None, 
2.607421875, -305, 0, 7, -0.116348266601563, -0.116348266601563, None, 
2.609375, -317, 0, 7, -0.120925903320313, -0.120925903320313, None, 
2.611328125, -317, 0, 7, -0.120925903320313, -0.120925903320313, None, 
2.61328125, -311, 0, 7, -0.118637084960938, -0.118637084960938, None, 
2.615234375, -295, 0, 7, -0.112533569335938, -0.112533569335938, None, 
2.6171875, -281, 0, 7, -0.107192993164063, -0.107192993164063, None, 
2.619140625, -280, 0, 7, -0.1068115234375, -0.1068115234375, None, 
2.62109375, -284, 0, 7, -0.10833740234375, -0.10833740234375, None, 
2.623046875, -299, 2, 7, -0.114059448242188, -0.114059448242188, None, 
2.625, -315, 0, 7, -0.120162963867188, -0.120162963867188, None, 
2.626953125, -320, 0, 7, -0.1220703125, -0.1220703125, None, 
2.62890625, -319, 0, 7, -0.121688842773438, -0.121688842773438, None, 
2.630859375, -306, 0, 7, -0.116729736328125, -0.116729736328125, None, 
2.6328125, -288, 0, 7, -0.10986328125, -0.10986328125, None, 
2.634765625, -277, 0, 7, -0.105667114257813, -0.105667114257813, None, 
2.63671875, -272, 0, 7, -0.103759765625, -0.103759765625, None, 
2.638671875, -277, 0, 7, -0.105667114257813, -0.105667114257813, None, 
2.640625, -291, 0, 7, -0.111007690429688, -0.111007690429688, None, 
2.642578125, -299, 0, 7, -0.114059448242188, -0.114059448242188, None, 
2.64453125, -298, 0, 7, -0.113677978515625, -0.113677978515625, None, 
2.646484375, -296, 0, 7, -0.1129150390625, -0.1129150390625, None, 
2.6484375, -283, 0, 7, -0.107955932617188, -0.107955932617188, None, 
2.650390625, -273, 0, 7, -0.104141235351563, -0.104141235351563, None, 
2.65234375, -274, 0, 7, -0.104522705078125, -0.104522705078125, None, 
2.654296875, -279, 2, 7, -0.106430053710938, -0.106430053710938, None, 
2.65625, -293, 0, 7, -0.111770629882813, -0.111770629882813, None, 
2.658203125, -306, 0, 7, -0.116729736328125, -0.116729736328125, None, 
2.66015625, -312, 0, 7, -0.1190185546875, -0.1190185546875, None, 
2.662109375, -309, 0, 7, -0.117874145507813, -0.117874145507813, None, 
2.6640625, -298, 0, 7, -0.113677978515625, -0.113677978515625, None, 
2.666015625, -278, 0, 7, -0.106048583984375, -0.106048583984375, None, 
2.66796875, -268, 0, 7, -0.10223388671875, -0.10223388671875, None, 
2.669921875, -266, 0, 7, -0.101470947265625, -0.101470947265625, None, 
2.671875, -275, 0, 7, -0.104904174804688, -0.104904174804688, None, 
2.673828125, -291, 0, 7, -0.111007690429688, -0.111007690429688, None, 
2.67578125, -304, 0, 7, -0.115966796875, -0.115966796875, None, 
2.677734375, -308, 0, 7, -0.11749267578125, -0.11749267578125, None, 
2.6796875, -307, 0, 7, -0.117111206054688, -0.117111206054688, None, 
2.681640625, -295, 0, 7, -0.112533569335938, -0.112533569335938, None, 
2.68359375, -286, 0, 7, -0.109100341796875, -0.109100341796875, None, 
2.685546875, -281, 2, 7, -0.107192993164063, -0.107192993164063, None, 
2.6875, -284, 0, 7, -0.10833740234375, -0.10833740234375, None, 
2.689453125, -294, 0, 7, -0.112152099609375, -0.112152099609375, None, 
2.69140625, -311, 0, 7, -0.118637084960938, -0.118637084960938, None, 
2.693359375, -316, 0, 7, -0.12054443359375, -0.12054443359375, None, 
2.6953125, -315, 0, 7, -0.120162963867188, -0.120162963867188, None, 
2.697265625, -302, 0, 7, -0.115203857421875, -0.115203857421875, None, 
2.69921875, -285, 0, 7, -0.108718872070313, -0.108718872070313, None, 
2.701171875, -274, 0, 7, -0.104522705078125, -0.104522705078125, None, 
2.703125, -272, 0, 7, -0.103759765625, -0.103759765625, None, 
2.705078125, -277, 0, 7, -0.105667114257813, -0.105667114257813, None, 
2.70703125, -291, 0, 7, -0.111007690429688, -0.111007690429688, None, 
2.708984375, -303, 0, 7, -0.115585327148438, -0.115585327148438, None, 
2.7109375, -311, 0, 7, -0.118637084960938, -0.118637084960938, None, 
2.712890625, -315, 0, 7, -0.120162963867188, -0.120162963867188, None, 
2.71484375, -306, 0, 7, -0.116729736328125, -0.116729736328125, None, 
2.716796875, -296, 2, 7, -0.1129150390625, -0.1129150390625, None, 
2.71875, -293, 0, 7, -0.111770629882813, -0.111770629882813, None, 
2.720703125, -292, 0, 7, -0.11138916015625, -0.11138916015625, None, 
2.72265625, -299, 0, 7, -0.114059448242188, -0.114059448242188, None, 
2.724609375, -309, 0, 7, -0.117874145507813, -0.117874145507813, None, 
2.7265625, -312, 0, 7, -0.1190185546875, -0.1190185546875, None, 
2.728515625, -310, 0, 7, -0.118255615234375, -0.118255615234375, None, 
2.73046875, -299, 0, 7, -0.114059448242188, -0.114059448242188, None, 
2.732421875, -285, 0, 7, -0.108718872070313, -0.108718872070313, None, 
2.734375, -279, 0, 7, -0.106430053710938, -0.106430053710938, None, 
2.736328125, -275, 0, 7, -0.104904174804688, -0.104904174804688, None, 
2.73828125, -279, 0, 7, -0.106430053710938, -0.106430053710938, None, 
2.740234375, -294, 0, 7, -0.112152099609375, -0.112152099609375, None, 
2.7421875, -312, 0, 7, -0.1190185546875, -0.1190185546875, None, 
2.744140625, -321, 0, 7, -0.122451782226563, -0.122451782226563, None, 
2.74609375, -324, 0, 7, -0.12359619140625, -0.12359619140625, None, 
2.748046875, -316, 2, 7, -0.12054443359375, -0.12054443359375, None, 
2.75, -304, 0, 7, -0.115966796875, -0.115966796875, None, 
2.751953125, -297, 0, 7, -0.113296508789063, -0.113296508789063, None, 
2.75390625, -291, 0, 7, -0.111007690429688, -0.111007690429688, None, 
2.755859375, -299, 0, 7, -0.114059448242188, -0.114059448242188, None, 
2.7578125, -307, 0, 7, -0.117111206054688, -0.117111206054688, None, 
2.759765625, -308, 0, 7, -0.11749267578125, -0.11749267578125, None, 
2.76171875, -305, 0, 7, -0.116348266601563, -0.116348266601563, None, 
2.763671875, -297, 0, 7, -0.113296508789063, -0.113296508789063, None, 
2.765625, -284, 0, 7, -0.10833740234375, -0.10833740234375, None, 
2.767578125, -274, 0, 7, -0.104522705078125, -0.104522705078125, None, 
2.76953125, -267, 0, 7, -0.101852416992188, -0.101852416992188, None, 
2.771484375, -273, 0, 7, -0.104141235351563, -0.104141235351563, None, 
2.7734375, -295, 0, 7, -0.112533569335938, -0.112533569335938, None, 
2.775390625, -310, 0, 7, -0.118255615234375, -0.118255615234375, None, 
2.77734375, -321, 0, 7, -0.122451782226563, -0.122451782226563, None, 
2.779296875, -325, 2, 7, -0.123977661132813, -0.123977661132813, None, 
2.78125, -312, 0, 7, -0.1190185546875, -0.1190185546875, None, 
2.783203125, -297, 0, 7, -0.113296508789063, -0.113296508789063, None, 
2.78515625, -289, 0, 7, -0.110244750976563, -0.110244750976563, None, 
2.787109375, -283, 0, 7, -0.107955932617188, -0.107955932617188, None, 
2.7890625, -289, 0, 7, -0.110244750976563, -0.110244750976563, None, 
2.791015625, -306, 0, 7, -0.116729736328125, -0.116729736328125, None, 
2.79296875, -315, 0, 7, -0.120162963867188, -0.120162963867188, None, 
2.794921875, -321, 0, 7, -0.122451782226563, -0.122451782226563, None, 
2.796875, -320, 0, 7, -0.1220703125, -0.1220703125, None, 
2.798828125, -303, 0, 7, -0.115585327148438, -0.115585327148438, None, 
2.80078125, -290, 0, 7, -0.110626220703125, -0.110626220703125, None, 
2.802734375, -284, 0, 7, -0.10833740234375, -0.10833740234375, None, 
2.8046875, -284, 0, 7, -0.10833740234375, -0.10833740234375, None, 
2.806640625, -295, 0, 7, -0.112533569335938, -0.112533569335938, None, 
2.80859375, -309, 0, 7, -0.117874145507813, -0.117874145507813, None, 
2.810546875, -318, 2, 7, -0.121307373046875, -0.121307373046875, None, 
2.8125, -323, 0, 7, -0.123214721679688, -0.123214721679688, None, 
2.814453125, -314, 0, 7, -0.119781494140625, -0.119781494140625, None, 
2.81640625, -302, 0, 7, -0.115203857421875, -0.115203857421875, None, 
2.818359375, -294, 0, 7, -0.112152099609375, -0.112152099609375, None, 
2.8203125, -292, 0, 7, -0.11138916015625, -0.11138916015625, None, 
2.822265625, -300, 0, 7, -0.11444091796875, -0.11444091796875, None, 
2.82421875, -316, 0, 7, -0.12054443359375, -0.12054443359375, None, 
2.826171875, -325, 0, 7, -0.123977661132813, -0.123977661132813, None, 
2.828125, -329, 0, 7, -0.125503540039063, -0.125503540039063, None, 
2.830078125, -323, 0, 7, -0.123214721679688, -0.123214721679688, None, 
2.83203125, -305, 0, 7, -0.116348266601563, -0.116348266601563, None, 
2.833984375, -296, 0, 7, -0.1129150390625, -0.1129150390625, None, 
2.8359375, -300, 0, 7, -0.11444091796875, -0.11444091796875, None, 
2.837890625, -313, 0, 7, -0.119400024414063, -0.119400024414063, None, 
2.83984375, -339, 0, 7, -0.129318237304688, -0.129318237304688, None, 
2.841796875, -363, 2, 7, -0.138473510742188, -0.138473510742188, None, 
2.84375, -381, 0, 7, -0.145339965820313, -0.145339965820313, None, 
2.845703125, -389, 0, 7, -0.148391723632813, -0.148391723632813, None, 
2.84765625, -383, 0, 7, -0.146102905273438, -0.146102905273438, None, 
2.849609375, -369, 0, 7, -0.140762329101563, -0.140762329101563, None, 
2.8515625, -364, 0, 7, -0.13885498046875, -0.13885498046875, None, 
2.853515625, -363, 0, 7, -0.138473510742188, -0.138473510742188, None, 
2.85546875, -369, 0, 7, -0.140762329101563, -0.140762329101563, None, 
2.857421875, -385, 0, 7, -0.146865844726563, -0.146865844726563, None, 
2.859375, -397, 0, 7, -0.151443481445313, -0.151443481445313, None, 
2.861328125, -397, 0, 7, -0.151443481445313, -0.151443481445313, None, 
2.86328125, -390, 0, 7, -0.148773193359375, -0.148773193359375, None, 
2.865234375, -371, 0, 7, -0.141525268554688, -0.141525268554688, None, 
2.8671875, -353, 0, 7, -0.134658813476563, -0.134658813476563, None, 
2.869140625, -347, 0, 7, -0.132369995117188, -0.132369995117188, None, 
2.87109375, -349, 0, 7, -0.133132934570313, -0.133132934570313, None, 
2.873046875, -357, 2, 7, -0.136184692382813, -0.136184692382813, None, 
2.875, -366, 0, 7, -0.139617919921875, -0.139617919921875, None, 
2.876953125, -365, 0, 7, -0.139236450195313, -0.139236450195313, None, 
2.87890625, -352, 0, 7, -0.13427734375, -0.13427734375, None, 
2.880859375, -328, 0, 7, -0.1251220703125, -0.1251220703125, None, 
2.8828125, -293, 0, 7, -0.111770629882813, -0.111770629882813, None, 
2.884765625, -268, 0, 7, -0.10223388671875, -0.10223388671875, None, 
2.88671875, -247, 0, 7, -0.0942230224609375, -0.0942230224609375, None, 
2.888671875, -238, 0, 7, -0.090789794921875, -0.090789794921875, None, 
2.890625, -237, 0, 7, -0.0904083251953125, -0.0904083251953125, None, 
2.892578125, -237, 0, 7, -0.0904083251953125, -0.0904083251953125, None, 
2.89453125, -229, 0, 7, -0.0873565673828125, -0.0873565673828125, None, 
2.896484375, -210, 0, 7, -0.080108642578125, -0.080108642578125, None, 
2.8984375, -187, 0, 7, -0.0713348388671875, -0.0713348388671875, None, 
2.900390625, -170, 0, 7, -0.064849853515625, -0.064849853515625, None, 
2.90234375, -157, 0, 7, -0.0598907470703125, -0.0598907470703125, None, 
2.904296875, -159, 2, 7, -0.0606536865234375, -0.0606536865234375, None, 
2.90625, -185, 0, 7, -0.0705718994140625, -0.0705718994140625, None, 
2.908203125, -218, 0, 7, -0.083160400390625, -0.083160400390625, None, 
2.91015625, -252, 0, 7, -0.09613037109375, -0.09613037109375, None, 
2.912109375, -289, 0, 7, -0.110244750976563, -0.110244750976563, None, 
2.9140625, -317, 0, 7, -0.120925903320313, -0.120925903320313, None, 
2.916015625, -336, 0, 7, -0.128173828125, -0.128173828125, None, 
2.91796875, -356, 0, 7, -0.13580322265625, -0.13580322265625, None, 
2.919921875, -369, 0, 7, -0.140762329101563, -0.140762329101563, None, 
2.921875, -382, 0, 7, -0.145721435546875, -0.145721435546875, None, 
2.923828125, -388, 0, 7, -0.14801025390625, -0.14801025390625, None, 
2.92578125, -368, 0, 7, -0.140380859375, -0.140380859375, None, 
2.927734375, -323, 0, 7, -0.123214721679688, -0.123214721679688, None, 
2.9296875, -258, 0, 7, -0.098419189453125, -0.098419189453125, None, 
2.931640625, -166, 0, 7, -0.063323974609375, -0.063323974609375, None, 
2.93359375, -61, 0, 7, -0.0232696533203125, -0.0232696533203125, None, 
2.935546875, 48, 2, 7, 0.018310546875, 0.018310546875, None, 
2.9375, 151, 0, 7, 0.0576019287109375, 0.0576019287109375, None, 
2.939453125, 231, 0, 7, 0.0881195068359375, 0.0881195068359375, None, 
2.94140625, 283, 0, 7, 0.107955932617188, 0.107955932617188, None, 
2.943359375, 309, 0, 7, 0.117874145507813, 0.117874145507813, None, 
2.9453125, 298, 0, 7, 0.113677978515625, 0.113677978515625, None, 
2.947265625, 258, 0, 7, 0.098419189453125, 0.098419189453125, None, 
2.94921875, 188, 0, 7, 0.07171630859375, 0.07171630859375, None, 
2.951171875, 88, 0, 7, 0.0335693359375, 0.0335693359375, None, 
2.953125, -30, 0, 7, -0.011444091796875, -0.011444091796875, None, 
2.955078125, -143, 0, 7, -0.0545501708984375, -0.0545501708984375, None, 
2.95703125, -246, 0, 7, -0.093841552734375, -0.093841552734375, None, 
2.958984375, -318, 0, 7, -0.121307373046875, -0.121307373046875, None, 
2.9609375, -351, 0, 7, -0.133895874023438, -0.133895874023438, None, 
2.962890625, -355, 0, 7, -0.135421752929688, -0.135421752929688, None, 
2.96484375, -335, 0, 7, -0.127792358398438, -0.127792358398438, None, 
2.966796875, -302, 2, 7, -0.115203857421875, -0.115203857421875, None, 
2.96875, -270, 0, 7, -0.102996826171875, -0.102996826171875, None, 
2.970703125, -241, 0, 7, -0.0919342041015625, -0.0919342041015625, None, 
2.97265625, -224, 0, 7, -0.08544921875, -0.08544921875, None, 
2.974609375, -207, 0, 7, -0.0789642333984375, -0.0789642333984375, None, 
2.9765625, -181, 0, 7, -0.0690460205078125, -0.0690460205078125, None, 
2.978515625, -151, 0, 7, -0.0576019287109375, -0.0576019287109375, None, 
2.98046875, -119, 0, 7, -0.0453948974609375, -0.0453948974609375, None, 
2.982421875, -89, 0, 7, -0.0339508056640625, -0.0339508056640625, None, 
2.984375, -74, 0, 7, -0.028228759765625, -0.028228759765625, None, 
2.986328125, -69, 0, 7, -0.0263214111328125, -0.0263214111328125, None, 
2.98828125, -80, 0, 7, -0.030517578125, -0.030517578125, None, 
2.990234375, -99, 0, 7, -0.0377655029296875, -0.0377655029296875, None, 
2.9921875, -121, 0, 7, -0.0461578369140625, -0.0461578369140625, None, 
2.994140625, -137, 0, 7, -0.0522613525390625, -0.0522613525390625, None, 
2.99609375, -147, 0, 7, -0.0560760498046875, -0.0560760498046875, None, 
2.998046875, -147, 2, 7, -0.0560760498046875, -0.0560760498046875, None, 
3, -142, 0, 7, -0.054168701171875, -0.054168701171875, None, 
3.001953125, -149, 0, 7, -0.0568389892578125, -0.0568389892578125, None, 
3.00390625, -157, 0, 7, -0.0598907470703125, -0.0598907470703125, None, 
3.005859375, -171, 0, 7, -0.0652313232421875, -0.0652313232421875, None, 
3.0078125, -189, 0, 7, -0.0720977783203125, -0.0720977783203125, None, 
3.009765625, -199, 0, 7, -0.0759124755859375, -0.0759124755859375, None, 
3.01171875, -202, 0, 7, -0.077056884765625, -0.077056884765625, None, 
3.013671875, -199, 0, 7, -0.0759124755859375, -0.0759124755859375, None, 
3.015625, -187, 0, 7, -0.0713348388671875, -0.0713348388671875, None, 
3.017578125, -181, 0, 7, -0.0690460205078125, -0.0690460205078125, None, 
3.01953125, -176, 0, 7, -0.067138671875, -0.067138671875, None, 
3.021484375, -183, 0, 7, -0.0698089599609375, -0.0698089599609375, None, 
3.0234375, -205, 0, 7, -0.0782012939453125, -0.0782012939453125, None, 
3.025390625, -223, 0, 7, -0.0850677490234375, -0.0850677490234375, None, 
3.02734375, -233, 0, 7, -0.0888824462890625, -0.0888824462890625, None, 
3.029296875, -237, 2, 7, -0.0904083251953125, -0.0904083251953125, None, 
3.03125, -226, 0, 7, -0.086212158203125, -0.086212158203125, None, 
3.033203125, -212, 0, 7, -0.08087158203125, -0.08087158203125, None, 
3.03515625, -202, 0, 7, -0.077056884765625, -0.077056884765625, None, 
3.037109375, -197, 0, 7, -0.0751495361328125, -0.0751495361328125, None, 
3.0390625, -203, 0, 7, -0.0774383544921875, -0.0774383544921875, None, 
3.041015625, -214, 0, 7, -0.081634521484375, -0.081634521484375, None, 
3.04296875, -219, 0, 7, -0.0835418701171875, -0.0835418701171875, None, 
3.044921875, -222, 0, 7, -0.084686279296875, -0.084686279296875, None, 
3.046875, -217, 0, 7, -0.0827789306640625, -0.0827789306640625, None, 
3.048828125, -198, 0, 7, -0.075531005859375, -0.075531005859375, None, 
3.05078125, -186, 0, 7, -0.070953369140625, -0.070953369140625, None, 
3.052734375, -185, 0, 7, -0.0705718994140625, -0.0705718994140625, None, 
3.0546875, -189, 0, 7, -0.0720977783203125, -0.0720977783203125, None, 
3.056640625, -205, 0, 7, -0.0782012939453125, -0.0782012939453125, None, 
3.05859375, -227, 0, 7, -0.0865936279296875, -0.0865936279296875, None, 
3.060546875, -238, 2, 7, -0.090789794921875, -0.090789794921875, None, 
3.0625, -242, 0, 7, -0.092315673828125, -0.092315673828125, None, 
3.064453125, -235, 0, 7, -0.0896453857421875, -0.0896453857421875, None, 
3.06640625, -220, 0, 7, -0.08392333984375, -0.08392333984375, None, 
3.068359375, -211, 0, 7, -0.0804901123046875, -0.0804901123046875, None, 
3.0703125, -206, 0, 7, -0.078582763671875, -0.078582763671875, None, 
3.072265625, -210, 0, 7, -0.080108642578125, -0.080108642578125, None, 
3.07421875, -222, 0, 7, -0.084686279296875, -0.084686279296875, None, 
3.076171875, -229, 0, 7, -0.0873565673828125, -0.0873565673828125, None, 
3.078125, -232, 0, 7, -0.0885009765625, -0.0885009765625, None, 
3.080078125, -227, 0, 7, -0.0865936279296875, -0.0865936279296875, None, 
3.08203125, -215, 0, 7, -0.0820159912109375, -0.0820159912109375, None, 
3.083984375, -205, 0, 7, -0.0782012939453125, -0.0782012939453125, None, 
3.0859375, -208, 0, 7, -0.079345703125, -0.079345703125, None, 
3.087890625, -215, 0, 7, -0.0820159912109375, -0.0820159912109375, None, 
3.08984375, -234, 0, 7, -0.089263916015625, -0.089263916015625, None, 
3.091796875, -252, 2, 7, -0.09613037109375, -0.09613037109375, None, 
3.09375, -258, 0, 7, -0.098419189453125, -0.098419189453125, None, 
3.095703125, -254, 0, 7, -0.096893310546875, -0.096893310546875, None, 
3.09765625, -236, 0, 7, -0.09002685546875, -0.09002685546875, None, 
3.099609375, -211, 0, 7, -0.0804901123046875, -0.0804901123046875, None, 
3.1015625, -196, 0, 7, -0.07476806640625, -0.07476806640625, None, 
3.103515625, -188, 0, 7, -0.07171630859375, -0.07171630859375, None, 
3.10546875, -191, 0, 7, -0.0728607177734375, -0.0728607177734375, None, 
3.107421875, -206, 0, 7, -0.078582763671875, -0.078582763671875, None, 
3.109375, -217, 0, 7, -0.0827789306640625, -0.0827789306640625, None, 
3.111328125, -223, 0, 7, -0.0850677490234375, -0.0850677490234375, None, 
3.11328125, -216, 0, 7, -0.0823974609375, -0.0823974609375, None, 
3.115234375, -199, 0, 7, -0.0759124755859375, -0.0759124755859375, None, 
3.1171875, -193, 0, 7, -0.0736236572265625, -0.0736236572265625, None, 
3.119140625, -195, 0, 7, -0.0743865966796875, -0.0743865966796875, None, 
3.12109375, -204, 0, 7, -0.07781982421875, -0.07781982421875, None, 
3.123046875, -224, 2, 7, -0.08544921875, -0.08544921875, None, 
3.125, -242, 0, 7, -0.092315673828125, -0.092315673828125, None, 
3.126953125, -251, 0, 7, -0.0957489013671875, -0.0957489013671875, None, 
3.12890625, -249, 0, 7, -0.0949859619140625, -0.0949859619140625, None, 
3.130859375, -231, 0, 7, -0.0881195068359375, -0.0881195068359375, None, 
3.1328125, -210, 0, 7, -0.080108642578125, -0.080108642578125, None, 
3.134765625, -197, 0, 7, -0.0751495361328125, -0.0751495361328125, None, 
3.13671875, -191, 0, 7, -0.0728607177734375, -0.0728607177734375, None, 
3.138671875, -195, 0, 7, -0.0743865966796875, -0.0743865966796875, None, 
3.140625, -211, 0, 7, -0.0804901123046875, -0.0804901123046875, None, 
3.142578125, -222, 0, 7, -0.084686279296875, -0.084686279296875, None, 
3.14453125, -220, 0, 7, -0.08392333984375, -0.08392333984375, None, 
3.146484375, -213, 0, 7, -0.0812530517578125, -0.0812530517578125, None, 
3.1484375, -201, 0, 7, -0.0766754150390625, -0.0766754150390625, None, 
3.150390625, -191, 0, 7, -0.0728607177734375, -0.0728607177734375, None, 
3.15234375, -191, 0, 7, -0.0728607177734375, -0.0728607177734375, None, 
3.154296875, -193, 2, 7, -0.0736236572265625, -0.0736236572265625, None, 
3.15625, -208, 0, 7, -0.079345703125, -0.079345703125, None, 
3.158203125, -220, 0, 7, -0.08392333984375, -0.08392333984375, None, 
3.16015625, -222, 0, 7, -0.084686279296875, -0.084686279296875, None, 
3.162109375, -216, 0, 7, -0.0823974609375, -0.0823974609375, None, 
3.1640625, -199, 0, 7, -0.0759124755859375, -0.0759124755859375, None, 
3.166015625, -177, 0, 7, -0.0675201416015625, -0.0675201416015625, None, 
3.16796875, -164, 0, 7, -0.06256103515625, -0.06256103515625, None, 
3.169921875, -159, 0, 7, -0.0606536865234375, -0.0606536865234375, None, 
3.171875, -168, 0, 7, -0.0640869140625, -0.0640869140625, None, 
3.173828125, -181, 0, 7, -0.0690460205078125, -0.0690460205078125, None, 
3.17578125, -186, 0, 7, -0.070953369140625, -0.070953369140625, None, 
3.177734375, -189, 0, 7, -0.0720977783203125, -0.0720977783203125, None, 
3.1796875, -181, 0, 7, -0.0690460205078125, -0.0690460205078125, None, 
3.181640625, -167, 0, 7, -0.0637054443359375, -0.0637054443359375, None, 
3.18359375, -157, 0, 7, -0.0598907470703125, -0.0598907470703125, None, 
3.185546875, -159, 2, 7, -0.0606536865234375, -0.0606536865234375, None, 
3.1875, -164, 0, 7, -0.06256103515625, -0.06256103515625, None, 
3.189453125, -178, 0, 7, -0.067901611328125, -0.067901611328125, None, 
3.19140625, -190, 0, 7, -0.072479248046875, -0.072479248046875, None, 
3.193359375, -190, 0, 7, -0.072479248046875, -0.072479248046875, None, 
3.1953125, -186, 0, 7, -0.070953369140625, -0.070953369140625, None, 
3.197265625, -166, 0, 7, -0.063323974609375, -0.063323974609375, None, 
3.19921875, -143, 0, 7, -0.0545501708984375, -0.0545501708984375, None, 
3.201171875, -130, 0, 7, -0.049591064453125, -0.049591064453125, None, 
3.203125, -127, 0, 7, -0.0484466552734375, -0.0484466552734375, None, 
3.205078125, -130, 0, 7, -0.049591064453125, -0.049591064453125, None, 
3.20703125, -146, 0, 7, -0.055694580078125, -0.055694580078125, None, 
3.208984375, -154, 0, 7, -0.058746337890625, -0.058746337890625, None, 
3.2109375, -161, 0, 7, -0.0614166259765625, -0.0614166259765625, None, 
3.212890625, -157, 0, 7, -0.0598907470703125, -0.0598907470703125, None, 
3.21484375, -145, 0, 7, -0.0553131103515625, -0.0553131103515625, None, 
3.216796875, -136, 2, 7, -0.0518798828125, -0.0518798828125, None, 
3.21875, -139, 0, 7, -0.0530242919921875, -0.0530242919921875, None, 
3.220703125, -146, 0, 7, -0.055694580078125, -0.055694580078125, None, 
3.22265625, -167, 0, 7, -0.0637054443359375, -0.0637054443359375, None, 
3.224609375, -190, 0, 7, -0.072479248046875, -0.072479248046875, None, 
3.2265625, -203, 0, 7, -0.0774383544921875, -0.0774383544921875, None, 
3.228515625, -210, 0, 7, -0.080108642578125, -0.080108642578125, None, 
3.23046875, -200, 0, 7, -0.0762939453125, -0.0762939453125, None, 
3.232421875, -180, 0, 7, -0.06866455078125, -0.06866455078125, None, 
3.234375, -166, 0, 7, -0.063323974609375, -0.063323974609375, None, 
3.236328125, -158, 0, 7, -0.060272216796875, -0.060272216796875, None, 
3.23828125, -158, 0, 7, -0.060272216796875, -0.060272216796875, None, 
3.240234375, -181, 0, 7, -0.0690460205078125, -0.0690460205078125, None, 
3.2421875, -209, 0, 7, -0.0797271728515625, -0.0797271728515625, None, 
3.244140625, -237, 0, 7, -0.0904083251953125, -0.0904083251953125, None, 
3.24609375, -261, 0, 7, -0.0995635986328125, -0.0995635986328125, None, 
3.248046875, -278, 2, 7, -0.106048583984375, -0.106048583984375, None, 
3.25, -285, 0, 7, -0.108718872070313, -0.108718872070313, None, 
3.251953125, -298, 0, 7, -0.113677978515625, -0.113677978515625, None, 
3.25390625, -306, 0, 7, -0.116729736328125, -0.116729736328125, None, 
3.255859375, -319, 0, 7, -0.121688842773438, -0.121688842773438, None, 
3.2578125, -338, 0, 7, -0.128936767578125, -0.128936767578125, None, 
3.259765625, -343, 0, 7, -0.130844116210938, -0.130844116210938, None, 
3.26171875, -346, 0, 7, -0.131988525390625, -0.131988525390625, None, 
3.263671875, -339, 0, 7, -0.129318237304688, -0.129318237304688, None, 
3.265625, -331, 0, 7, -0.126266479492188, -0.126266479492188, None, 
3.267578125, -322, 0, 7, -0.122833251953125, -0.122833251953125, None, 
3.26953125, -323, 0, 7, -0.123214721679688, -0.123214721679688, None, 
3.271484375, -331, 0, 7, -0.126266479492188, -0.126266479492188, None, 
3.2734375, -350, 0, 7, -0.133514404296875, -0.133514404296875, None, 
3.275390625, -363, 0, 7, -0.138473510742188, -0.138473510742188, None, 
3.27734375, -372, 0, 7, -0.14190673828125, -0.14190673828125, None, 
3.279296875, -372, 2, 7, -0.14190673828125, -0.14190673828125, None, 
3.28125, -363, 0, 7, -0.138473510742188, -0.138473510742188, None, 
3.283203125, -348, 0, 7, -0.13275146484375, -0.13275146484375, None, 
3.28515625, -338, 0, 7, -0.128936767578125, -0.128936767578125, None, 
3.287109375, -332, 0, 7, -0.12664794921875, -0.12664794921875, None, 
3.2890625, -337, 0, 7, -0.128555297851563, -0.128555297851563, None, 
