% Time (s), ECG_DATA[17:0], ETAG[2:0], PTAG[2:0], ECG (mV), ECG Filtered (mV), Filter Type, LDOFF_PH, LDOFF_PL, LDOFF_NH, LDOFF_NL
0, 0, 0, 7, 0, 0, None, 
0.001953125, 0, 0, 7, 0, 0, None, 
0.00390625, -1, 0, 7, -0.0003814697265625, -0.0003814697265625, None, 
0.005859375, -2, 0, 7, -0.000762939453125, -0.000762939453125, None, 
0.0078125, -2, 0, 7, -0.000762939453125, -0.000762939453125, None, 
0.009765625, -6, 0, 7, -0.002288818359375, -0.002288818359375, None, 
0.01171875, -1, 0, 7, -0.0003814697265625, -0.0003814697265625, None, 
0.013671875, -10, 0, 7, -0.003814697265625, -0.003814697265625, None, 
0.015625, -12, 0, 7, -0.00457763671875, -0.00457763671875, None, 
0.017578125, 9, 0, 7, 0.0034332275390625, 0.0034332275390625, None, 
0.01953125, -122, 0, 7, -0.046539306640625, -0.046539306640625, None, 
0.021484375, -314, 0, 7, -0.119781494140625, -0.119781494140625, None, 
0.0234375, -269, 0, 7, -0.102615356445313, -0.102615356445313, None, 
0.025390625, -18, 0, 7, -0.006866455078125, -0.006866455078125, None, 
0.02734375, 458, 0, 7, 0.174713134765625, 0.174713134765625, None, 
0.029296875, 1203, 2, 7, 0.458908081054688, 0.458908081054688, None, 
0.03125, 2091, 0, 7, 0.797653198242188, 0.797653198242188, None, 
0.033203125, 2992, 0, 7, 1.141357421875, 1.141357421875, None, 
0.03515625, 3770, 0, 7, 1.43814086914063, 1.43814086914063, None, 
0.037109375, 4303, 0, 7, 1.64146423339844, 1.64146423339844, None, 
0.0390625, 4578, 0, 7, 1.74636840820313, 1.74636840820313, None, 
0.041015625, 4654, 0, 7, 1.77536010742188, 1.77536010742188, None, 
0.04296875, 4485, 0, 7, 1.71089172363281, 1.71089172363281, None, 
0.044921875, 4286, 0, 7, 1.63497924804688, 1.63497924804688, None, 
0.046875, 4261, 0, 7, 1.62544250488281, 1.62544250488281, None, 
0.048828125, 4248, 0, 7, 1.6204833984375, 1.6204833984375, None, 
0.05078125, 4203, 0, 7, 1.60331726074219, 1.60331726074219, None, 
0.052734375, 4185, 0, 7, 1.59645080566406, 1.59645080566406, None, 
0.0546875, 4146, 0, 7, 1.58157348632813, 1.58157348632813, None, 
0.056640625, 4100, 0, 7, 1.56402587890625, 1.56402587890625, None, 
0.05859375, 4075, 0, 7, 1.55448913574219, 1.55448913574219, None, 
0.060546875, 4048, 2, 7, 1.544189453125, 1.544189453125, None, 
0.0625, 4023, 0, 7, 1.53465270996094, 1.53465270996094, None, 
0.064453125, 4009, 0, 7, 1.52931213378906, 1.52931213378906, None, 
0.06640625, 3994, 0, 7, 1.52359008789063, 1.52359008789063, None, 
0.068359375, 3961, 0, 7, 1.51100158691406, 1.51100158691406, None, 
0.0703125, 3918, 0, 7, 1.49459838867188, 1.49459838867188, None, 
0.072265625, 3873, 0, 7, 1.47743225097656, 1.47743225097656, None, 
0.07421875, 3832, 0, 7, 1.4617919921875, 1.4617919921875, None, 
0.076171875, 3801, 0, 7, 1.44996643066406, 1.44996643066406, None, 
0.078125, 3773, 0, 7, 1.43928527832031, 1.43928527832031, None, 
0.080078125, 3758, 0, 7, 1.43356323242188, 1.43356323242188, None, 
0.08203125, 3744, 0, 7, 1.42822265625, 1.42822265625, None, 
0.083984375, 3727, 0, 7, 1.42173767089844, 1.42173767089844, None, 
0.0859375, 3698, 0, 7, 1.41067504882813, 1.41067504882813, None, 
0.087890625, 3671, 0, 7, 1.40037536621094, 1.40037536621094, None, 
0.08984375, 3632, 0, 7, 1.385498046875, 1.385498046875, None, 
0.091796875, 3583, 2, 7, 1.36680603027344, 1.36680603027344, None, 
0.09375, 3546, 0, 7, 1.35269165039063, 1.35269165039063, None, 
0.095703125, 3525, 0, 7, 1.34468078613281, 1.34468078613281, None, 
0.09765625, 3507, 0, 7, 1.33781433105469, 1.33781433105469, None, 
0.099609375, 3501, 0, 7, 1.33552551269531, 1.33552551269531, None, 
0.1015625, 3495, 0, 7, 1.33323669433594, 1.33323669433594, None, 
0.103515625, 3475, 0, 7, 1.32560729980469, 1.32560729980469, None, 
0.10546875, 3451, 0, 7, 1.31645202636719, 1.31645202636719, None, 
0.107421875, 3435, 0, 7, 1.31034851074219, 1.31034851074219, None, 
0.109375, 3395, 0, 7, 1.29508972167969, 1.29508972167969, None, 
0.111328125, 3356, 0, 7, 1.28021240234375, 1.28021240234375, None, 
0.11328125, 3326, 0, 7, 1.26876831054688, 1.26876831054688, None, 
0.115234375, 3295, 0, 7, 1.25694274902344, 1.25694274902344, None, 
0.1171875, 3273, 0, 7, 1.24855041503906, 1.24855041503906, None, 
0.119140625, 3264, 0, 7, 1.2451171875, 1.2451171875, None, 
0.12109375, 3248, 0, 7, 1.239013671875, 1.239013671875, None, 
0.123046875, 3231, 2, 7, 1.23252868652344, 1.23252868652344, None, 
0.125, 3212, 0, 7, 1.22528076171875, 1.22528076171875, None, 
0.126953125, 3189, 0, 7, 1.21650695800781, 1.21650695800781, None, 
0.12890625, 3177, 0, 7, 1.21192932128906, 1.21192932128906, None, 
0.130859375, 3164, 0, 7, 1.20697021484375, 1.20697021484375, None, 
0.1328125, 3137, 0, 7, 1.19667053222656, 1.19667053222656, None, 
0.134765625, 3116, 0, 7, 1.18865966796875, 1.18865966796875, None, 
0.13671875, 3099, 0, 7, 1.18217468261719, 1.18217468261719, None, 
0.138671875, 3072, 0, 7, 1.171875, 1.171875, None, 
0.140625, 3043, 0, 7, 1.16081237792969, 1.16081237792969, None, 
0.142578125, 3020, 0, 7, 1.15203857421875, 1.15203857421875, None, 
0.14453125, 2997, 0, 7, 1.14326477050781, 1.14326477050781, None, 
0.146484375, 2975, 0, 7, 1.13487243652344, 1.13487243652344, None, 
0.1484375, 2956, 0, 7, 1.12762451171875, 1.12762451171875, None, 
0.150390625, 2942, 0, 7, 1.12228393554688, 1.12228393554688, None, 
0.15234375, 2916, 0, 7, 1.11236572265625, 1.11236572265625, None, 
0.154296875, 2885, 2, 7, 1.10054016113281, 1.10054016113281, None, 
0.15625, 2863, 0, 7, 1.09214782714844, 1.09214782714844, None, 
0.158203125, 2839, 0, 7, 1.08299255371094, 1.08299255371094, None, 
0.16015625, 2813, 0, 7, 1.07307434082031, 1.07307434082031, None, 
0.162109375, 2800, 0, 7, 1.068115234375, 1.068115234375, None, 
0.1640625, 2780, 0, 7, 1.06048583984375, 1.06048583984375, None, 
0.166015625, 2761, 0, 7, 1.05323791503906, 1.05323791503906, None, 
0.16796875, 2746, 0, 7, 1.04751586914063, 1.04751586914063, None, 
0.169921875, 2731, 0, 7, 1.04179382324219, 1.04179382324219, None, 
0.171875, 2711, 0, 7, 1.03416442871094, 1.03416442871094, None, 
0.173828125, 2699, 0, 7, 1.02958679199219, 1.02958679199219, None, 
0.17578125, 2690, 0, 7, 1.02615356445313, 1.02615356445313, None, 
0.177734375, 2671, 0, 7, 1.01890563964844, 1.01890563964844, None, 
0.1796875, 2658, 0, 7, 1.01394653320313, 1.01394653320313, None, 
0.181640625, 2637, 0, 7, 1.00593566894531, 1.00593566894531, None, 
0.18359375, 2613, 0, 7, 0.996780395507813, 0.996780395507813, None, 
0.185546875, 2595, 2, 7, 0.989913940429688, 0.989913940429688, None, 
0.1875, 2565, 0, 7, 0.978469848632813, 0.978469848632813, None, 
0.189453125, 2532, 0, 7, 0.96588134765625, 0.96588134765625, None, 
0.19140625, 2521, 0, 7, 0.961685180664063, 0.961685180664063, None, 
0.193359375, 2504, 0, 7, 0.9552001953125, 0.9552001953125, None, 
0.1953125, 2488, 0, 7, 0.9490966796875, 0.9490966796875, None, 
0.197265625, 2481, 0, 7, 0.946426391601563, 0.946426391601563, None, 
0.19921875, 2469, 0, 7, 0.941848754882813, 0.941848754882813, None, 
0.201171875, 2450, 0, 7, 0.934600830078125, 0.934600830078125, None, 
0.203125, 2422, 0, 7, 0.923919677734375, 0.923919677734375, None, 
0.205078125, 2379, 0, 7, 0.907516479492188, 0.907516479492188, None, 
0.20703125, 2338, 0, 7, 0.891876220703125, 0.891876220703125, None, 
0.208984375, 2304, 0, 7, 0.87890625, 0.87890625, None, 
0.2109375, 2270, 0, 7, 0.865936279296875, 0.865936279296875, None, 
0.212890625, 2245, 0, 7, 0.856399536132813, 0.856399536132813, None, 
0.21484375, 2237, 0, 7, 0.853347778320313, 0.853347778320313, None, 
0.216796875, 2223, 2, 7, 0.848007202148438, 0.848007202148438, None, 
0.21875, 2204, 0, 7, 0.84075927734375, 0.84075927734375, None, 
0.220703125, 2177, 0, 7, 0.830459594726563, 0.830459594726563, None, 
0.22265625, 2132, 0, 7, 0.81329345703125, 0.81329345703125, None, 
0.224609375, 2088, 0, 7, 0.7965087890625, 0.7965087890625, None, 
0.2265625, 2048, 0, 7, 0.78125, 0.78125, None, 
0.228515625, 2016, 0, 7, 0.76904296875, 0.76904296875, None, 
0.23046875, 2006, 0, 7, 0.765228271484375, 0.765228271484375, None, 
0.232421875, 2013, 0, 7, 0.767898559570313, 0.767898559570313, None, 
0.234375, 2009, 0, 7, 0.766372680664063, 0.766372680664063, None, 
0.236328125, 1997, 0, 7, 0.761795043945313, 0.761795043945313, None, 
0.23828125, 1984, 0, 7, 0.7568359375, 0.7568359375, None, 
0.240234375, 1959, 0, 7, 0.747299194335938, 0.747299194335938, None, 
0.2421875, 1920, 0, 7, 0.732421875, 0.732421875, None, 
0.244140625, 1887, 0, 7, 0.719833374023438, 0.719833374023438, None, 
0.24609375, 1859, 0, 7, 0.709152221679688, 0.709152221679688, None, 
0.248046875, 1841, 2, 7, 0.702285766601563, 0.702285766601563, None, 
0.25, 1832, 0, 7, 0.6988525390625, 0.6988525390625, None, 
0.251953125, 1828, 0, 7, 0.69732666015625, 0.69732666015625, None, 
0.25390625, 1816, 0, 7, 0.6927490234375, 0.6927490234375, None, 
0.255859375, 1795, 0, 7, 0.684738159179688, 0.684738159179688, None, 
0.2578125, 1769, 0, 7, 0.674819946289063, 0.674819946289063, None, 
0.259765625, 1747, 0, 7, 0.666427612304688, 0.666427612304688, None, 
0.26171875, 1727, 0, 7, 0.658798217773438, 0.658798217773438, None, 
0.263671875, 1717, 0, 7, 0.654983520507813, 0.654983520507813, None, 
0.265625, 1703, 0, 7, 0.649642944335938, 0.649642944335938, None, 
0.267578125, 1690, 0, 7, 0.644683837890625, 0.644683837890625, None, 
0.26953125, 1678, 0, 7, 0.640106201171875, 0.640106201171875, None, 
0.271484375, 1664, 0, 7, 0.634765625, 0.634765625, None, 
0.2734375, 1642, 0, 7, 0.626373291015625, 0.626373291015625, None, 
0.275390625, 1626, 0, 7, 0.620269775390625, 0.620269775390625, None, 
0.27734375, 1609, 0, 7, 0.613784790039063, 0.613784790039063, None, 
0.279296875, 1595, 2, 7, 0.608444213867188, 0.608444213867188, None, 
0.28125, 1589, 0, 7, 0.606155395507813, 0.606155395507813, None, 
0.283203125, 1576, 0, 7, 0.6011962890625, 0.6011962890625, None, 
0.28515625, 1557, 0, 7, 0.593948364257813, 0.593948364257813, None, 
0.287109375, 1534, 0, 7, 0.585174560546875, 0.585174560546875, None, 
0.2890625, 1514, 0, 7, 0.577545166015625, 0.577545166015625, None, 
0.291015625, 1498, 0, 7, 0.571441650390625, 0.571441650390625, None, 
0.29296875, 1491, 0, 7, 0.568771362304688, 0.568771362304688, None, 
0.294921875, 1493, 0, 7, 0.569534301757813, 0.569534301757813, None, 
0.296875, 1492, 0, 7, 0.56915283203125, 0.56915283203125, None, 
0.298828125, 1487, 0, 7, 0.567245483398438, 0.567245483398438, None, 
0.30078125, 1477, 0, 7, 0.563430786132813, 0.563430786132813, None, 
0.302734375, 1454, 0, 7, 0.554656982421875, 0.554656982421875, None, 
0.3046875, 1422, 0, 7, 0.542449951171875, 0.542449951171875, None, 
0.306640625, 1395, 0, 7, 0.532150268554688, 0.532150268554688, None, 
0.30859375, 1375, 0, 7, 0.524520874023438, 0.524520874023438, None, 
0.310546875, 1352, 2, 7, 0.5157470703125, 0.5157470703125, None, 
0.3125, 1339, 0, 7, 0.510787963867188, 0.510787963867188, None, 
0.314453125, 1335, 0, 7, 0.509262084960938, 0.509262084960938, None, 
0.31640625, 1323, 0, 7, 0.504684448242188, 0.504684448242188, None, 
0.318359375, 1312, 0, 7, 0.50048828125, 0.50048828125, None, 
0.3203125, 1299, 0, 7, 0.495529174804688, 0.495529174804688, None, 
0.322265625, 1285, 0, 7, 0.490188598632813, 0.490188598632813, None, 
0.32421875, 1273, 0, 7, 0.485610961914063, 0.485610961914063, None, 
0.326171875, 1255, 0, 7, 0.478744506835938, 0.478744506835938, None, 
0.328125, 1242, 0, 7, 0.473785400390625, 0.473785400390625, None, 
0.330078125, 1230, 0, 7, 0.469207763671875, 0.469207763671875, None, 
0.33203125, 1227, 0, 7, 0.468063354492188, 0.468063354492188, None, 
0.333984375, 1222, 0, 7, 0.466156005859375, 0.466156005859375, None, 
0.3359375, 1218, 0, 7, 0.464630126953125, 0.464630126953125, None, 
0.337890625, 1221, 0, 7, 0.465774536132813, 0.465774536132813, None, 
0.33984375, 1222, 0, 7, 0.466156005859375, 0.466156005859375, None, 
0.341796875, 1216, 2, 7, 0.4638671875, 0.4638671875, None, 
0.34375, 1200, 0, 7, 0.457763671875, 0.457763671875, None, 
0.345703125, 1179, 0, 7, 0.449752807617188, 0.449752807617188, None, 
0.34765625, 1154, 0, 7, 0.440216064453125, 0.440216064453125, None, 
0.349609375, 1133, 0, 7, 0.432205200195313, 0.432205200195313, None, 
0.3515625, 1108, 0, 7, 0.42266845703125, 0.42266845703125, None, 
0.353515625, 1092, 0, 7, 0.41656494140625, 0.41656494140625, None, 
0.35546875, 1087, 0, 7, 0.414657592773438, 0.414657592773438, None, 
0.357421875, 1086, 0, 7, 0.414276123046875, 0.414276123046875, None, 
0.359375, 1082, 0, 7, 0.412750244140625, 0.412750244140625, None, 
0.361328125, 1078, 0, 7, 0.411224365234375, 0.411224365234375, None, 
0.36328125, 1072, 0, 7, 0.408935546875, 0.408935546875, None, 
0.365234375, 1059, 0, 7, 0.403976440429688, 0.403976440429688, None, 
0.3671875, 1038, 0, 7, 0.395965576171875, 0.395965576171875, None, 
0.369140625, 1025, 0, 7, 0.391006469726563, 0.391006469726563, None, 
0.37109375, 1011, 0, 7, 0.385665893554688, 0.385665893554688, None, 
0.373046875, 999, 2, 7, 0.381088256835938, 0.381088256835938, None, 
0.375, 989, 0, 7, 0.377273559570313, 0.377273559570313, None, 
0.376953125, 987, 0, 7, 0.376510620117188, 0.376510620117188, None, 
0.37890625, 985, 0, 7, 0.375747680664063, 0.375747680664063, None, 
0.380859375, 978, 0, 7, 0.373077392578125, 0.373077392578125, None, 
0.3828125, 963, 0, 7, 0.367355346679688, 0.367355346679688, None, 
0.384765625, 954, 0, 7, 0.363922119140625, 0.363922119140625, None, 
0.38671875, 950, 0, 7, 0.362396240234375, 0.362396240234375, None, 
0.388671875, 937, 0, 7, 0.357437133789063, 0.357437133789063, None, 
0.390625, 925, 0, 7, 0.352859497070313, 0.352859497070313, None, 
0.392578125, 917, 0, 7, 0.349807739257813, 0.349807739257813, None, 
0.39453125, 906, 0, 7, 0.345611572265625, 0.345611572265625, None, 
0.396484375, 895, 0, 7, 0.341415405273438, 0.341415405273438, None, 
0.3984375, 891, 0, 7, 0.339889526367188, 0.339889526367188, None, 
0.400390625, 882, 0, 7, 0.336456298828125, 0.336456298828125, None, 
0.40234375, 865, 0, 7, 0.329971313476563, 0.329971313476563, None, 
0.404296875, 851, 2, 7, 0.324630737304688, 0.324630737304688, None, 
0.40625, 835, 0, 7, 0.318527221679688, 0.318527221679688, None, 
0.408203125, 818, 0, 7, 0.312042236328125, 0.312042236328125, None, 
0.41015625, 809, 0, 7, 0.308609008789063, 0.308609008789063, None, 
0.412109375, 802, 0, 7, 0.305938720703125, 0.305938720703125, None, 
0.4140625, 794, 0, 7, 0.302886962890625, 0.302886962890625, None, 
0.416015625, 797, 0, 7, 0.304031372070313, 0.304031372070313, None, 
0.41796875, 796, 0, 7, 0.30364990234375, 0.30364990234375, None, 
0.419921875, 793, 0, 7, 0.302505493164063, 0.302505493164063, None, 
0.421875, 787, 0, 7, 0.300216674804688, 0.300216674804688, None, 
0.423828125, 776, 0, 7, 0.2960205078125, 0.2960205078125, None, 
0.42578125, 761, 0, 7, 0.290298461914063, 0.290298461914063, None, 
0.427734375, 755, 0, 7, 0.288009643554688, 0.288009643554688, None, 
0.4296875, 740, 0, 7, 0.28228759765625, 0.28228759765625, None, 
0.431640625, 717, 0, 7, 0.273513793945313, 0.273513793945313, None, 
0.43359375, 707, 0, 7, 0.269699096679688, 0.269699096679688, None, 
0.435546875, 690, 2, 7, 0.263214111328125, 0.263214111328125, None, 
0.4375, 661, 0, 7, 0.252151489257813, 0.252151489257813, None, 
0.439453125, 647, 0, 7, 0.246810913085938, 0.246810913085938, None, 
0.44140625, 638, 0, 7, 0.243377685546875, 0.243377685546875, None, 
0.443359375, 638, 0, 7, 0.243377685546875, 0.243377685546875, None, 
0.4453125, 644, 0, 7, 0.24566650390625, 0.24566650390625, None, 
0.447265625, 652, 0, 7, 0.24871826171875, 0.24871826171875, None, 
0.44921875, 652, 0, 7, 0.24871826171875, 0.24871826171875, None, 
0.451171875, 651, 0, 7, 0.248336791992188, 0.248336791992188, None, 
0.453125, 644, 0, 7, 0.24566650390625, 0.24566650390625, None, 
0.455078125, 627, 0, 7, 0.239181518554688, 0.239181518554688, None, 
0.45703125, 621, 0, 7, 0.236892700195313, 0.236892700195313, None, 
0.458984375, 617, 0, 7, 0.235366821289063, 0.235366821289063, None, 
0.4609375, 607, 0, 7, 0.231552124023438, 0.231552124023438, None, 
0.462890625, 603, 0, 7, 0.230026245117188, 0.230026245117188, None, 
0.46484375, 601, 0, 7, 0.229263305664063, 0.229263305664063, None, 
0.466796875, 593, 2, 7, 0.226211547851563, 0.226211547851563, None, 
0.46875, 582, 0, 7, 0.222015380859375, 0.222015380859375, None, 
0.470703125, 566, 0, 7, 0.215911865234375, 0.215911865234375, None, 
0.47265625, 551, 0, 7, 0.210189819335938, 0.210189819335938, None, 
0.474609375, 536, 0, 7, 0.2044677734375, 0.2044677734375, None, 
0.4765625, 525, 0, 7, 0.200271606445313, 0.200271606445313, None, 
0.478515625, 514, 0, 7, 0.196075439453125, 0.196075439453125, None, 
0.48046875, 510, 0, 7, 0.194549560546875, 0.194549560546875, None, 
0.482421875, 513, 0, 7, 0.195693969726563, 0.195693969726563, None, 
0.484375, 514, 0, 7, 0.196075439453125, 0.196075439453125, None, 
0.486328125, 512, 0, 7, 0.1953125, 0.1953125, None, 
0.48828125, 513, 0, 7, 0.195693969726563, 0.195693969726563, None, 
0.490234375, 509, 0, 7, 0.194168090820313, 0.194168090820313, None, 
0.4921875, 498, 0, 7, 0.189971923828125, 0.189971923828125, None, 
0.494140625, 484, 0, 7, 0.18463134765625, 0.18463134765625, None, 
0.49609375, 471, 0, 7, 0.179672241210938, 0.179672241210938, None, 
0.498046875, 464, 2, 7, 0.177001953125, 0.177001953125, None, 
0.5, 454, 0, 7, 0.173187255859375, 0.173187255859375, None, 
0.501953125, 448, 0, 7, 0.1708984375, 0.1708984375, None, 
0.50390625, 453, 0, 7, 0.172805786132813, 0.172805786132813, None, 
0.505859375, 457, 0, 7, 0.174331665039063, 0.174331665039063, None, 
0.5078125, 449, 0, 7, 0.171279907226563, 0.171279907226563, None, 
0.509765625, 440, 0, 7, 0.1678466796875, 0.1678466796875, None, 
0.51171875, 428, 0, 7, 0.16326904296875, 0.16326904296875, None, 
0.513671875, 411, 0, 7, 0.156784057617188, 0.156784057617188, None, 
0.515625, 398, 0, 7, 0.151824951171875, 0.151824951171875, None, 
0.517578125, 384, 0, 7, 0.146484375, 0.146484375, None, 
0.51953125, 379, 0, 7, 0.144577026367188, 0.144577026367188, None, 
0.521484375, 381, 0, 7, 0.145339965820313, 0.145339965820313, None, 
0.5234375, 384, 0, 7, 0.146484375, 0.146484375, None, 
0.525390625, 387, 0, 7, 0.147628784179688, 0.147628784179688, None, 
0.52734375, 394, 0, 7, 0.150299072265625, 0.150299072265625, None, 
0.529296875, 391, 2, 7, 0.149154663085938, 0.149154663085938, None, 
0.53125, 380, 0, 7, 0.14495849609375, 0.14495849609375, None, 
0.533203125, 378, 0, 7, 0.144195556640625, 0.144195556640625, None, 
0.53515625, 371, 0, 7, 0.141525268554688, 0.141525268554688, None, 
0.537109375, 357, 0, 7, 0.136184692382813, 0.136184692382813, None, 
0.5390625, 343, 0, 7, 0.130844116210938, 0.130844116210938, None, 
0.541015625, 342, 0, 7, 0.130462646484375, 0.130462646484375, None, 
0.54296875, 336, 0, 7, 0.128173828125, 0.128173828125, None, 
0.544921875, 327, 0, 7, 0.124740600585938, 0.124740600585938, None, 
0.546875, 321, 0, 7, 0.122451782226563, 0.122451782226563, None, 
0.548828125, 318, 0, 7, 0.121307373046875, 0.121307373046875, None, 
0.55078125, 309, 0, 7, 0.117874145507813, 0.117874145507813, None, 
0.552734375, 300, 0, 7, 0.11444091796875, 0.11444091796875, None, 
0.5546875, 286, 0, 7, 0.109100341796875, 0.109100341796875, None, 
0.556640625, 268, 0, 7, 0.10223388671875, 0.10223388671875, None, 
0.55859375, 248, 0, 7, 0.0946044921875, 0.0946044921875, None, 
0.560546875, 232, 2, 7, 0.0885009765625, 0.0885009765625, None, 
0.5625, 223, 0, 7, 0.0850677490234375, 0.0850677490234375, None, 
0.564453125, 231, 0, 7, 0.0881195068359375, 0.0881195068359375, None, 
0.56640625, 249, 0, 7, 0.0949859619140625, 0.0949859619140625, None, 
0.568359375, 259, 0, 7, 0.0988006591796875, 0.0988006591796875, None, 
0.5703125, 270, 0, 7, 0.102996826171875, 0.102996826171875, None, 
0.572265625, 276, 0, 7, 0.10528564453125, 0.10528564453125, None, 
0.57421875, 274, 0, 7, 0.104522705078125, 0.104522705078125, None, 
0.576171875, 273, 0, 7, 0.104141235351563, 0.104141235351563, None, 
0.578125, 267, 0, 7, 0.101852416992188, 0.101852416992188, None, 
0.580078125, 245, 0, 7, 0.0934600830078125, 0.0934600830078125, None, 
0.58203125, 236, 0, 7, 0.09002685546875, 0.09002685546875, None, 
0.583984375, 227, 0, 7, 0.0865936279296875, 0.0865936279296875, None, 
0.5859375, 202, 0, 7, 0.077056884765625, 0.077056884765625, None, 
0.587890625, 186, 0, 7, 0.070953369140625, 0.070953369140625, None, 
0.58984375, 177, 0, 7, 0.0675201416015625, 0.0675201416015625, None, 
0.591796875, 165, 2, 7, 0.0629425048828125, 0.0629425048828125, None, 
0.59375, 155, 0, 7, 0.0591278076171875, 0.0591278076171875, None, 
0.595703125, 152, 0, 7, 0.0579833984375, 0.0579833984375, None, 
0.59765625, 153, 0, 7, 0.0583648681640625, 0.0583648681640625, None, 
0.599609375, 153, 0, 7, 0.0583648681640625, 0.0583648681640625, None, 
0.6015625, 141, 0, 7, 0.0537872314453125, 0.0537872314453125, None, 
0.603515625, 126, 0, 7, 0.048065185546875, 0.048065185546875, None, 
0.60546875, 121, 0, 7, 0.0461578369140625, 0.0461578369140625, None, 
0.607421875, 109, 0, 7, 0.0415802001953125, 0.0415802001953125, None, 
0.609375, 95, 0, 7, 0.0362396240234375, 0.0362396240234375, None, 
0.611328125, 98, 0, 7, 0.037384033203125, 0.037384033203125, None, 
0.61328125, 98, 0, 7, 0.037384033203125, 0.037384033203125, None, 
0.615234375, 87, 0, 7, 0.0331878662109375, 0.0331878662109375, None, 
0.6171875, 84, 0, 7, 0.03204345703125, 0.03204345703125, None, 
0.619140625, 79, 0, 7, 0.0301361083984375, 0.0301361083984375, None, 
0.62109375, 68, 0, 7, 0.02593994140625, 0.02593994140625, None, 
0.623046875, 64, 2, 7, 0.0244140625, 0.0244140625, None, 
0.625, 62, 0, 7, 0.023651123046875, 0.023651123046875, None, 
0.626953125, 56, 0, 7, 0.0213623046875, 0.0213623046875, None, 
0.62890625, 56, 0, 7, 0.0213623046875, 0.0213623046875, None, 
0.630859375, 59, 0, 7, 0.0225067138671875, 0.0225067138671875, None, 
0.6328125, 57, 0, 7, 0.0217437744140625, 0.0217437744140625, None, 
0.634765625, 56, 0, 7, 0.0213623046875, 0.0213623046875, None, 
0.63671875, 47, 0, 7, 0.0179290771484375, 0.0179290771484375, None, 
0.638671875, 37, 0, 7, 0.0141143798828125, 0.0141143798828125, None, 
0.640625, 38, 0, 7, 0.014495849609375, 0.014495849609375, None, 
0.642578125, 36, 0, 7, 0.01373291015625, 0.01373291015625, None, 
0.64453125, 30, 0, 7, 0.011444091796875, 0.011444091796875, None, 
0.646484375, 34, 0, 7, 0.012969970703125, 0.012969970703125, None, 
0.6484375, 29, 0, 7, 0.0110626220703125, 0.0110626220703125, None, 
0.650390625, 13, 0, 7, 0.0049591064453125, 0.0049591064453125, None, 
0.65234375, 2, 0, 7, 0.000762939453125, 0.000762939453125, None, 
0.654296875, -8, 2, 7, -0.0030517578125, -0.0030517578125, None, 
0.65625, -24, 0, 7, -0.0091552734375, -0.0091552734375, None, 
0.658203125, -34, 0, 7, -0.012969970703125, -0.012969970703125, None, 
0.66015625, -38, 0, 7, -0.014495849609375, -0.014495849609375, None, 
0.662109375, -37, 0, 7, -0.0141143798828125, -0.0141143798828125, None, 
0.6640625, -19, 0, 7, -0.0072479248046875, -0.0072479248046875, None, 
0.666015625, 12, 0, 7, 0.00457763671875, 0.00457763671875, None, 
0.66796875, 64, 0, 7, 0.0244140625, 0.0244140625, None, 
0.669921875, 129, 0, 7, 0.0492095947265625, 0.0492095947265625, None, 
0.671875, 209, 0, 7, 0.0797271728515625, 0.0797271728515625, None, 
0.673828125, 303, 0, 7, 0.115585327148438, 0.115585327148438, None, 
0.67578125, 409, 0, 7, 0.156021118164063, 0.156021118164063, None, 
0.677734375, 520, 0, 7, 0.1983642578125, 0.1983642578125, None, 
0.6796875, 635, 0, 7, 0.242233276367188, 0.242233276367188, None, 
0.681640625, 752, 0, 7, 0.286865234375, 0.286865234375, None, 
0.68359375, 852, 0, 7, 0.32501220703125, 0.32501220703125, None, 
0.685546875, 914, 2, 7, 0.348663330078125, 0.348663330078125, None, 
0.6875, 938, 0, 7, 0.357818603515625, 0.357818603515625, None, 
0.689453125, 910, 0, 7, 0.347137451171875, 0.347137451171875, None, 
0.69140625, 816, 0, 7, 0.311279296875, 0.311279296875, None, 
0.693359375, 660, 0, 7, 0.25177001953125, 0.25177001953125, None, 
0.6953125, 468, 0, 7, 0.17852783203125, 0.17852783203125, None, 
0.697265625, 268, 0, 7, 0.10223388671875, 0.10223388671875, None, 
0.69921875, 61, 0, 7, 0.0232696533203125, 0.0232696533203125, None, 
0.701171875, -122, 0, 7, -0.046539306640625, -0.046539306640625, None, 
0.703125, -255, 0, 7, -0.0972747802734375, -0.0972747802734375, None, 
0.705078125, -342, 0, 7, -0.130462646484375, -0.130462646484375, None, 
0.70703125, -391, 0, 7, -0.149154663085938, -0.149154663085938, None, 
0.708984375, -409, 0, 7, -0.156021118164063, -0.156021118164063, None, 
0.7109375, -405, 0, 7, -0.154495239257813, -0.154495239257813, None, 
0.712890625, -385, 0, 7, -0.146865844726563, -0.146865844726563, None, 
0.71484375, -355, 0, 7, -0.135421752929688, -0.135421752929688, None, 
0.716796875, -326, 2, 7, -0.124359130859375, -0.124359130859375, None, 
0.71875, -293, 0, 7, -0.111770629882813, -0.111770629882813, None, 
0.720703125, -256, 0, 7, -0.09765625, -0.09765625, None, 
0.72265625, -233, 0, 7, -0.0888824462890625, -0.0888824462890625, None, 
0.724609375, -220, 0, 7, -0.08392333984375, -0.08392333984375, None, 
0.7265625, -196, 0, 7, -0.07476806640625, -0.07476806640625, None, 
0.728515625, -174, 0, 7, -0.066375732421875, -0.066375732421875, None, 
0.73046875, -170, 0, 7, -0.064849853515625, -0.064849853515625, None, 
0.732421875, -165, 0, 7, -0.0629425048828125, -0.0629425048828125, None, 
0.734375, -158, 0, 7, -0.060272216796875, -0.060272216796875, None, 
0.736328125, -154, 0, 7, -0.058746337890625, -0.058746337890625, None, 
0.73828125, -150, 0, 7, -0.057220458984375, -0.057220458984375, None, 
0.740234375, -152, 0, 7, -0.0579833984375, -0.0579833984375, None, 
0.7421875, -163, 0, 7, -0.0621795654296875, -0.0621795654296875, None, 
0.744140625, -170, 0, 7, -0.064849853515625, -0.064849853515625, None, 
0.74609375, -185, 0, 7, -0.0705718994140625, -0.0705718994140625, None, 
0.748046875, -200, 2, 7, -0.0762939453125, -0.0762939453125, None, 
0.75, -206, 0, 7, -0.078582763671875, -0.078582763671875, None, 
0.751953125, -211, 0, 7, -0.0804901123046875, -0.0804901123046875, None, 
0.75390625, -214, 0, 7, -0.081634521484375, -0.081634521484375, None, 
0.755859375, -214, 0, 7, -0.081634521484375, -0.081634521484375, None, 
0.7578125, -215, 0, 7, -0.0820159912109375, -0.0820159912109375, None, 
0.759765625, -209, 0, 7, -0.0797271728515625, -0.0797271728515625, None, 
0.76171875, -210, 0, 7, -0.080108642578125, -0.080108642578125, None, 
0.763671875, -213, 0, 7, -0.0812530517578125, -0.0812530517578125, None, 
0.765625, -215, 0, 7, -0.0820159912109375, -0.0820159912109375, None, 
0.767578125, -215, 0, 7, -0.0820159912109375, -0.0820159912109375, None, 
0.76953125, -214, 0, 7, -0.081634521484375, -0.081634521484375, None, 
0.771484375, -209, 0, 7, -0.0797271728515625, -0.0797271728515625, None, 
0.7734375, -213, 0, 7, -0.0812530517578125, -0.0812530517578125, None, 
0.775390625, -215, 0, 7, -0.0820159912109375, -0.0820159912109375, None, 
0.77734375, -211, 0, 7, -0.0804901123046875, -0.0804901123046875, None, 
0.779296875, -207, 2, 7, -0.0789642333984375, -0.0789642333984375, None, 
0.78125, -204, 0, 7, -0.07781982421875, -0.07781982421875, None, 
0.783203125, -201, 0, 7, -0.0766754150390625, -0.0766754150390625, None, 
0.78515625, -204, 0, 7, -0.07781982421875, -0.07781982421875, None, 
0.787109375, -204, 0, 7, -0.07781982421875, -0.07781982421875, None, 
0.7890625, -204, 0, 7, -0.07781982421875, -0.07781982421875, None, 
0.791015625, -204, 0, 7, -0.07781982421875, -0.07781982421875, None, 
0.79296875, -203, 0, 7, -0.0774383544921875, -0.0774383544921875, None, 
0.794921875, -207, 0, 7, -0.0789642333984375, -0.0789642333984375, None, 
0.796875, -215, 0, 7, -0.0820159912109375, -0.0820159912109375, None, 
0.798828125, -222, 0, 7, -0.084686279296875, -0.084686279296875, None, 
0.80078125, -233, 0, 7, -0.0888824462890625, -0.0888824462890625, None, 
0.802734375, -241, 0, 7, -0.0919342041015625, -0.0919342041015625, None, 
0.8046875, -243, 0, 7, -0.0926971435546875, -0.0926971435546875, None, 
0.806640625, -252, 0, 7, -0.09613037109375, -0.09613037109375, None, 
0.80859375, -255, 0, 7, -0.0972747802734375, -0.0972747802734375, None, 
0.810546875, -248, 2, 7, -0.0946044921875, -0.0946044921875, None, 
0.8125, -246, 0, 7, -0.093841552734375, -0.093841552734375, None, 
0.814453125, -246, 0, 7, -0.093841552734375, -0.093841552734375, None, 
0.81640625, -240, 0, 7, -0.091552734375, -0.091552734375, None, 
0.818359375, -244, 0, 7, -0.09307861328125, -0.09307861328125, None, 
0.8203125, -247, 0, 7, -0.0942230224609375, -0.0942230224609375, None, 
0.822265625, -244, 0, 7, -0.09307861328125, -0.09307861328125, None, 
0.82421875, -245, 0, 7, -0.0934600830078125, -0.0934600830078125, None, 
0.826171875, -246, 0, 7, -0.093841552734375, -0.093841552734375, None, 
0.828125, -233, 0, 7, -0.0888824462890625, -0.0888824462890625, None, 
0.830078125, -228, 0, 7, -0.08697509765625, -0.08697509765625, None, 
0.83203125, -233, 0, 7, -0.0888824462890625, -0.0888824462890625, None, 
0.833984375, -229, 0, 7, -0.0873565673828125, -0.0873565673828125, None, 
0.8359375, -231, 0, 7, -0.0881195068359375, -0.0881195068359375, None, 
0.837890625, -245, 0, 7, -0.0934600830078125, -0.0934600830078125, None, 
0.83984375, -249, 0, 7, -0.0949859619140625, -0.0949859619140625, None, 
0.841796875, -252, 2, 7, -0.09613037109375, -0.09613037109375, None, 
0.84375, -252, 0, 7, -0.09613037109375, -0.09613037109375, None, 
0.845703125, -247, 0, 7, -0.0942230224609375, -0.0942230224609375, None, 
0.84765625, -244, 0, 7, -0.09307861328125, -0.09307861328125, None, 
0.849609375, -246, 0, 7, -0.093841552734375, -0.093841552734375, None, 
0.8515625, -242, 0, 7, -0.092315673828125, -0.092315673828125, None, 
0.853515625, -242, 0, 7, -0.092315673828125, -0.092315673828125, None, 
0.85546875, -253, 0, 7, -0.0965118408203125, -0.0965118408203125, None, 
0.857421875, -253, 0, 7, -0.0965118408203125, -0.0965118408203125, None, 
0.859375, -253, 0, 7, -0.0965118408203125, -0.0965118408203125, None, 
0.861328125, -253, 0, 7, -0.0965118408203125, -0.0965118408203125, None, 
0.86328125, -251, 0, 7, -0.0957489013671875, -0.0957489013671875, None, 
0.865234375, -248, 0, 7, -0.0946044921875, -0.0946044921875, None, 
0.8671875, -246, 0, 7, -0.093841552734375, -0.093841552734375, None, 
0.869140625, -252, 0, 7, -0.09613037109375, -0.09613037109375, None, 
0.87109375, -257, 0, 7, -0.0980377197265625, -0.0980377197265625, None, 
0.873046875, -256, 2, 7, -0.09765625, -0.09765625, None, 
0.875, -258, 0, 7, -0.098419189453125, -0.098419189453125, None, 
0.876953125, -260, 0, 7, -0.09918212890625, -0.09918212890625, None, 
0.87890625, -254, 0, 7, -0.096893310546875, -0.096893310546875, None, 
0.880859375, -256, 0, 7, -0.09765625, -0.09765625, None, 
0.8828125, -259, 0, 7, -0.0988006591796875, -0.0988006591796875, None, 
0.884765625, -255, 0, 7, -0.0972747802734375, -0.0972747802734375, None, 
0.88671875, -253, 0, 7, -0.0965118408203125, -0.0965118408203125, None, 
0.888671875, -252, 0, 7, -0.09613037109375, -0.09613037109375, None, 
0.890625, -252, 0, 7, -0.09613037109375, -0.09613037109375, None, 
0.892578125, -261, 0, 7, -0.0995635986328125, -0.0995635986328125, None, 
0.89453125, -270, 0, 7, -0.102996826171875, -0.102996826171875, None, 
0.896484375, -272, 0, 7, -0.103759765625, -0.103759765625, None, 
0.8984375, -276, 0, 7, -0.10528564453125, -0.10528564453125, None, 
0.900390625, -270, 0, 7, -0.102996826171875, -0.102996826171875, None, 
0.90234375, -263, 0, 7, -0.100326538085938, -0.100326538085938, None, 
0.904296875, -255, 2, 7, -0.0972747802734375, -0.0972747802734375, None, 
0.90625, -249, 0, 7, -0.0949859619140625, -0.0949859619140625, None, 
0.908203125, -246, 0, 7, -0.093841552734375, -0.093841552734375, None, 
0.91015625, -251, 0, 7, -0.0957489013671875, -0.0957489013671875, None, 
0.912109375, -256, 0, 7, -0.09765625, -0.09765625, None, 
0.9140625, -265, 0, 7, -0.101089477539063, -0.101089477539063, None, 
0.916015625, -270, 0, 7, -0.102996826171875, -0.102996826171875, None, 
0.91796875, -273, 0, 7, -0.104141235351563, -0.104141235351563, None, 
0.919921875, -275, 0, 7, -0.104904174804688, -0.104904174804688, None, 
0.921875, -277, 0, 7, -0.105667114257813, -0.105667114257813, None, 
0.923828125, -278, 0, 7, -0.106048583984375, -0.106048583984375, None, 
0.92578125, -284, 0, 7, -0.10833740234375, -0.10833740234375, None, 
0.927734375, -283, 0, 7, -0.107955932617188, -0.107955932617188, None, 
0.9296875, -277, 0, 7, -0.105667114257813, -0.105667114257813, None, 
0.931640625, -274, 0, 7, -0.104522705078125, -0.104522705078125, None, 
0.93359375, -264, 0, 7, -0.1007080078125, -0.1007080078125, None, 
0.935546875, -259, 2, 7, -0.0988006591796875, -0.0988006591796875, None, 
0.9375, -269, 0, 7, -0.102615356445313, -0.102615356445313, None, 
0.939453125, -279, 0, 7, -0.106430053710938, -0.106430053710938, None, 
0.94140625, -289, 0, 7, -0.110244750976563, -0.110244750976563, None, 
0.943359375, -303, 0, 7, -0.115585327148438, -0.115585327148438, None, 
0.9453125, -304, 0, 7, -0.115966796875, -0.115966796875, None, 
0.947265625, -294, 0, 7, -0.112152099609375, -0.112152099609375, None, 
0.94921875, -287, 0, 7, -0.109481811523438, -0.109481811523438, None, 
0.951171875, -278, 0, 7, -0.106048583984375, -0.106048583984375, None, 
0.953125, -272, 0, 7, -0.103759765625, -0.103759765625, None, 
0.955078125, -279, 0, 7, -0.106430053710938, -0.106430053710938, None, 
0.95703125, -285, 0, 7, -0.108718872070313, -0.108718872070313, None, 
0.958984375, -292, 0, 7, -0.11138916015625, -0.11138916015625, None, 
0.9609375, -298, 0, 7, -0.113677978515625, -0.113677978515625, None, 
0.962890625, -299, 0, 7, -0.114059448242188, -0.114059448242188, None, 
0.96484375, -291, 0, 7, -0.111007690429688, -0.111007690429688, None, 
0.966796875, -293, 2, 7, -0.111770629882813, -0.111770629882813, None, 
0.96875, -298, 0, 7, -0.113677978515625, -0.113677978515625, None, 
0.970703125, -307, 0, 7, -0.117111206054688, -0.117111206054688, None, 
0.97265625, -326, 0, 7, -0.124359130859375, -0.124359130859375, None, 
0.974609375, -332, 0, 7, -0.12664794921875, -0.12664794921875, None, 
0.9765625, -333, 0, 7, -0.127029418945313, -0.127029418945313, None, 
0.978515625, -344, 0, 7, -0.1312255859375, -0.1312255859375, None, 
0.98046875, -343, 0, 7, -0.130844116210938, -0.130844116210938, None, 
0.982421875, -337, 0, 7, -0.128555297851563, -0.128555297851563, None, 
0.984375, -337, 0, 7, -0.128555297851563, -0.128555297851563, None, 
0.986328125, -342, 0, 7, -0.130462646484375, -0.130462646484375, None, 
0.98828125, -352, 0, 7, -0.13427734375, -0.13427734375, None, 
0.990234375, -360, 0, 7, -0.1373291015625, -0.1373291015625, None, 
0.9921875, -375, 0, 7, -0.143051147460938, -0.143051147460938, None, 
0.994140625, -394, 0, 7, -0.150299072265625, -0.150299072265625, None, 
0.99609375, -409, 0, 7, -0.156021118164063, -0.156021118164063, None, 
0.998046875, -417, 2, 7, -0.159072875976563, -0.159072875976563, None, 
1, -433, 0, 7, -0.165176391601563, -0.165176391601563, None, 
1.001953125, -447, 0, 7, -0.170516967773438, -0.170516967773438, None, 
1.00390625, -448, 0, 7, -0.1708984375, -0.1708984375, None, 
1.005859375, -445, 0, 7, -0.169754028320313, -0.169754028320313, None, 
1.0078125, -440, 0, 7, -0.1678466796875, -0.1678466796875, None, 
1.009765625, -436, 0, 7, -0.16632080078125, -0.16632080078125, None, 
1.01171875, -442, 0, 7, -0.168609619140625, -0.168609619140625, None, 
1.013671875, -445, 0, 7, -0.169754028320313, -0.169754028320313, None, 
1.015625, -445, 0, 7, -0.169754028320313, -0.169754028320313, None, 
1.017578125, -453, 0, 7, -0.172805786132813, -0.172805786132813, None, 
1.01953125, -461, 0, 7, -0.175857543945313, -0.175857543945313, None, 
1.021484375, -477, 0, 7, -0.181961059570313, -0.181961059570313, None, 
1.0234375, -490, 0, 7, -0.186920166015625, -0.186920166015625, None, 
1.025390625, -494, 0, 7, -0.188446044921875, -0.188446044921875, None, 
1.02734375, -492, 0, 7, -0.18768310546875, -0.18768310546875, None, 
1.029296875, -496, 2, 7, -0.189208984375, -0.189208984375, None, 
1.03125, -498, 0, 7, -0.189971923828125, -0.189971923828125, None, 
1.033203125, -499, 0, 7, -0.190353393554688, -0.190353393554688, None, 
1.03515625, -498, 0, 7, -0.189971923828125, -0.189971923828125, None, 
1.037109375, -491, 0, 7, -0.187301635742188, -0.187301635742188, None, 
1.0390625, -482, 0, 7, -0.183868408203125, -0.183868408203125, None, 
1.041015625, -481, 0, 7, -0.183486938476563, -0.183486938476563, None, 
1.04296875, -469, 0, 7, -0.178909301757813, -0.178909301757813, None, 
1.044921875, -463, 0, 7, -0.176620483398438, -0.176620483398438, None, 
1.046875, -456, 0, 7, -0.1739501953125, -0.1739501953125, None, 
1.048828125, -451, 0, 7, -0.172042846679688, -0.172042846679688, None, 
1.05078125, -452, 0, 7, -0.17242431640625, -0.17242431640625, None, 
1.052734375, -465, 0, 7, -0.177383422851563, -0.177383422851563, None, 
1.0546875, -480, 0, 7, -0.18310546875, -0.18310546875, None, 
1.056640625, -486, 0, 7, -0.185394287109375, -0.185394287109375, None, 
1.05859375, -482, 0, 7, -0.183868408203125, -0.183868408203125, None, 
1.060546875, -482, 2, 7, -0.183868408203125, -0.183868408203125, None, 
1.0625, -485, 0, 7, -0.185012817382813, -0.185012817382813, None, 
1.064453125, -488, 0, 7, -0.1861572265625, -0.1861572265625, None, 
1.06640625, -486, 0, 7, -0.185394287109375, -0.185394287109375, None, 
1.068359375, -487, 0, 7, -0.185775756835938, -0.185775756835938, None, 
1.0703125, -488, 0, 7, -0.1861572265625, -0.1861572265625, None, 
1.072265625, -489, 0, 7, -0.186538696289063, -0.186538696289063, None, 
1.07421875, -492, 0, 7, -0.18768310546875, -0.18768310546875, None, 
1.076171875, -492, 0, 7, -0.18768310546875, -0.18768310546875, None, 
1.078125, -491, 0, 7, -0.187301635742188, -0.187301635742188, None, 
1.080078125, -490, 0, 7, -0.186920166015625, -0.186920166015625, None, 
1.08203125, -483, 0, 7, -0.184249877929688, -0.184249877929688, None, 
1.083984375, -479, 0, 7, -0.182723999023438, -0.182723999023438, None, 
1.0859375, -474, 0, 7, -0.180816650390625, -0.180816650390625, None, 
1.087890625, -470, 0, 7, -0.179290771484375, -0.179290771484375, None, 
1.08984375, -479, 0, 7, -0.182723999023438, -0.182723999023438, None, 
1.091796875, -492, 2, 7, -0.18768310546875, -0.18768310546875, None, 
1.09375, -501, 0, 7, -0.191116333007813, -0.191116333007813, None, 
1.095703125, -519, 0, 7, -0.197982788085938, -0.197982788085938, None, 
1.09765625, -537, 0, 7, -0.204849243164063, -0.204849243164063, None, 
1.099609375, -541, 0, 7, -0.206375122070313, -0.206375122070313, None, 
1.1015625, -534, 0, 7, -0.203704833984375, -0.203704833984375, None, 
1.103515625, -518, 0, 7, -0.197601318359375, -0.197601318359375, None, 
1.10546875, -497, 0, 7, -0.189590454101563, -0.189590454101563, None, 
1.107421875, -476, 0, 7, -0.18157958984375, -0.18157958984375, None, 
1.109375, -461, 0, 7, -0.175857543945313, -0.175857543945313, None, 
1.111328125, -461, 0, 7, -0.175857543945313, -0.175857543945313, None, 
1.11328125, -481, 0, 7, -0.183486938476563, -0.183486938476563, None, 
1.115234375, -498, 0, 7, -0.189971923828125, -0.189971923828125, None, 
1.1171875, -506, 0, 7, -0.193023681640625, -0.193023681640625, None, 
1.119140625, -523, 0, 7, -0.199508666992188, -0.199508666992188, None, 
1.12109375, -534, 0, 7, -0.203704833984375, -0.203704833984375, None, 
1.123046875, -530, 2, 7, -0.202178955078125, -0.202178955078125, None, 
1.125, -525, 0, 7, -0.200271606445313, -0.200271606445313, None, 
1.126953125, -514, 0, 7, -0.196075439453125, -0.196075439453125, None, 
1.12890625, -503, 0, 7, -0.191879272460938, -0.191879272460938, None, 
1.130859375, -494, 0, 7, -0.188446044921875, -0.188446044921875, None, 
1.1328125, -485, 0, 7, -0.185012817382813, -0.185012817382813, None, 
1.134765625, -473, 0, 7, -0.180435180664063, -0.180435180664063, None, 
1.13671875, -477, 0, 7, -0.181961059570313, -0.181961059570313, None, 
1.138671875, -475, 0, 7, -0.181198120117188, -0.181198120117188, None, 
1.140625, -475, 0, 7, -0.181198120117188, -0.181198120117188, None, 
1.142578125, -493, 0, 7, -0.188064575195313, -0.188064575195313, None, 
1.14453125, -500, 0, 7, -0.19073486328125, -0.19073486328125, None, 
1.146484375, -487, 0, 7, -0.185775756835938, -0.185775756835938, None, 
1.1484375, -481, 0, 7, -0.183486938476563, -0.183486938476563, None, 
1.150390625, -478, 0, 7, -0.182342529296875, -0.182342529296875, None, 
1.15234375, -473, 0, 7, -0.180435180664063, -0.180435180664063, None, 
1.154296875, -479, 2, 7, -0.182723999023438, -0.182723999023438, None, 
1.15625, -491, 0, 7, -0.187301635742188, -0.187301635742188, None, 
1.158203125, -506, 0, 7, -0.193023681640625, -0.193023681640625, None, 
1.16015625, -530, 0, 7, -0.202178955078125, -0.202178955078125, None, 
1.162109375, -546, 0, 7, -0.208282470703125, -0.208282470703125, None, 
1.1640625, -555, 0, 7, -0.211715698242188, -0.211715698242188, None, 
1.166015625, -562, 0, 7, -0.214385986328125, -0.214385986328125, None, 
1.16796875, -549, 0, 7, -0.209426879882813, -0.209426879882813, None, 
1.169921875, -537, 0, 7, -0.204849243164063, -0.204849243164063, None, 
1.171875, -547, 0, 7, -0.208663940429688, -0.208663940429688, None, 
1.173828125, -556, 0, 7, -0.21209716796875, -0.21209716796875, None, 
1.17578125, -550, 0, 7, -0.209808349609375, -0.209808349609375, None, 
1.177734375, -549, 0, 7, -0.209426879882813, -0.209426879882813, None, 
1.1796875, -549, 0, 7, -0.209426879882813, -0.209426879882813, None, 
1.181640625, -546, 0, 7, -0.208282470703125, -0.208282470703125, None, 
1.18359375, -542, 0, 7, -0.206756591796875, -0.206756591796875, None, 
1.185546875, -540, 2, 7, -0.20599365234375, -0.20599365234375, None, 
1.1875, -529, 0, 7, -0.201797485351563, -0.201797485351563, None, 
1.189453125, -518, 0, 7, -0.197601318359375, -0.197601318359375, None, 
1.19140625, -509, 0, 7, -0.194168090820313, -0.194168090820313, None, 
1.193359375, -502, 0, 7, -0.191497802734375, -0.191497802734375, None, 
1.1953125, -497, 0, 7, -0.189590454101563, -0.189590454101563, None, 
1.197265625, -493, 0, 7, -0.188064575195313, -0.188064575195313, None, 
1.19921875, -491, 0, 7, -0.187301635742188, -0.187301635742188, None, 
1.201171875, -513, 0, 7, -0.195693969726563, -0.195693969726563, None, 
1.203125, -535, 0, 7, -0.204086303710938, -0.204086303710938, None, 
1.205078125, -556, 0, 7, -0.21209716796875, -0.21209716796875, None, 
1.20703125, -565, 0, 7, -0.215530395507813, -0.215530395507813, None, 
1.208984375, -564, 0, 7, -0.21514892578125, -0.21514892578125, None, 
1.2109375, -560, 0, 7, -0.213623046875, -0.213623046875, None, 
1.212890625, -552, 0, 7, -0.2105712890625, -0.2105712890625, None, 
1.21484375, -543, 0, 7, -0.207138061523438, -0.207138061523438, None, 
1.216796875, -536, 2, 7, -0.2044677734375, -0.2044677734375, None, 
1.21875, -538, 0, 7, -0.205230712890625, -0.205230712890625, None, 
1.220703125, -543, 0, 7, -0.207138061523438, -0.207138061523438, None, 
1.22265625, -545, 0, 7, -0.207901000976563, -0.207901000976563, None, 
1.224609375, -546, 0, 7, -0.208282470703125, -0.208282470703125, None, 
1.2265625, -545, 0, 7, -0.207901000976563, -0.207901000976563, None, 
1.228515625, -537, 0, 7, -0.204849243164063, -0.204849243164063, None, 
1.23046875, -516, 0, 7, -0.19683837890625, -0.19683837890625, None, 
1.232421875, -499, 0, 7, -0.190353393554688, -0.190353393554688, None, 
1.234375, -501, 0, 7, -0.191116333007813, -0.191116333007813, None, 
1.236328125, -505, 0, 7, -0.192642211914063, -0.192642211914063, None, 
1.23828125, -506, 0, 7, -0.193023681640625, -0.193023681640625, None, 
1.240234375, -522, 0, 7, -0.199127197265625, -0.199127197265625, None, 
1.2421875, -541, 0, 7, -0.206375122070313, -0.206375122070313, None, 
1.244140625, -547, 0, 7, -0.208663940429688, -0.208663940429688, None, 
1.24609375, -552, 0, 7, -0.2105712890625, -0.2105712890625, None, 
1.248046875, -559, 2, 7, -0.213241577148438, -0.213241577148438, None, 
1.25, -544, 0, 7, -0.20751953125, -0.20751953125, None, 
1.251953125, -530, 0, 7, -0.202178955078125, -0.202178955078125, None, 
1.25390625, -521, 0, 7, -0.198745727539063, -0.198745727539063, None, 
1.255859375, -517, 0, 7, -0.197219848632813, -0.197219848632813, None, 
1.2578125, -522, 0, 7, -0.199127197265625, -0.199127197265625, None, 
1.259765625, -526, 0, 7, -0.200653076171875, -0.200653076171875, None, 
1.26171875, -529, 0, 7, -0.201797485351563, -0.201797485351563, None, 
1.263671875, -543, 0, 7, -0.207138061523438, -0.207138061523438, None, 
1.265625, -551, 0, 7, -0.210189819335938, -0.210189819335938, None, 
1.267578125, -548, 0, 7, -0.20904541015625, -0.20904541015625, None, 
1.26953125, -552, 0, 7, -0.2105712890625, -0.2105712890625, None, 
1.271484375, -547, 0, 7, -0.208663940429688, -0.208663940429688, None, 
1.2734375, -534, 0, 7, -0.203704833984375, -0.203704833984375, None, 
1.275390625, -526, 0, 7, -0.200653076171875, -0.200653076171875, None, 
1.27734375, -527, 0, 7, -0.201034545898438, -0.201034545898438, None, 
1.279296875, -522, 2, 7, -0.199127197265625, -0.199127197265625, None, 
1.28125, -524, 0, 7, -0.19989013671875, -0.19989013671875, None, 
1.283203125, -526, 0, 7, -0.200653076171875, -0.200653076171875, None, 
1.28515625, -529, 0, 7, -0.201797485351563, -0.201797485351563, None, 
1.287109375, -533, 0, 7, -0.203323364257813, -0.203323364257813, None, 
1.2890625, -533, 0, 7, -0.203323364257813, -0.203323364257813, None, 
1.291015625, -524, 0, 7, -0.19989013671875, -0.19989013671875, None, 
1.29296875, -514, 0, 7, -0.196075439453125, -0.196075439453125, None, 
1.294921875, -508, 0, 7, -0.19378662109375, -0.19378662109375, None, 
1.296875, -510, 0, 7, -0.194549560546875, -0.194549560546875, None, 
1.298828125, -505, 0, 7, -0.192642211914063, -0.192642211914063, None, 
1.30078125, -510, 0, 7, -0.194549560546875, -0.194549560546875, None, 
1.302734375, -524, 0, 7, -0.19989013671875, -0.19989013671875, None, 
1.3046875, -540, 0, 7, -0.20599365234375, -0.20599365234375, None, 
1.306640625, -552, 0, 7, -0.2105712890625, -0.2105712890625, None, 
1.30859375, -561, 0, 7, -0.214004516601563, -0.214004516601563, None, 
1.310546875, -558, 2, 7, -0.212860107421875, -0.212860107421875, None, 
1.3125, -549, 0, 7, -0.209426879882813, -0.209426879882813, None, 
1.314453125, -536, 0, 7, -0.2044677734375, -0.2044677734375, None, 
1.31640625, -533, 0, 7, -0.203323364257813, -0.203323364257813, None, 
1.318359375, -532, 0, 7, -0.20294189453125, -0.20294189453125, None, 
1.3203125, -523, 0, 7, -0.199508666992188, -0.199508666992188, None, 
1.322265625, -527, 0, 7, -0.201034545898438, -0.201034545898438, None, 
1.32421875, -530, 0, 7, -0.202178955078125, -0.202178955078125, None, 
1.326171875, -530, 0, 7, -0.202178955078125, -0.202178955078125, None, 
1.328125, -529, 0, 7, -0.201797485351563, -0.201797485351563, None, 
1.330078125, -524, 0, 7, -0.19989013671875, -0.19989013671875, None, 
1.33203125, -511, 0, 7, -0.194931030273438, -0.194931030273438, None, 
1.333984375, -512, 0, 7, -0.1953125, -0.1953125, None, 
1.3359375, -513, 0, 7, -0.195693969726563, -0.195693969726563, None, 
1.337890625, -513, 0, 7, -0.195693969726563, -0.195693969726563, None, 
1.33984375, -522, 0, 7, -0.199127197265625, -0.199127197265625, None, 
1.341796875, -526, 2, 7, -0.200653076171875, -0.200653076171875, None, 
1.34375, -521, 0, 7, -0.198745727539063, -0.198745727539063, None, 
1.345703125, -520, 0, 7, -0.1983642578125, -0.1983642578125, None, 
1.34765625, -520, 0, 7, -0.1983642578125, -0.1983642578125, None, 
1.349609375, -516, 0, 7, -0.19683837890625, -0.19683837890625, None, 
1.3515625, -522, 0, 7, -0.199127197265625, -0.199127197265625, None, 
1.353515625, -520, 0, 7, -0.1983642578125, -0.1983642578125, None, 
1.35546875, -521, 0, 7, -0.198745727539063, -0.198745727539063, None, 
1.357421875, -530, 0, 7, -0.202178955078125, -0.202178955078125, None, 
1.359375, -540, 0, 7, -0.20599365234375, -0.20599365234375, None, 
1.361328125, -539, 0, 7, -0.205612182617188, -0.205612182617188, None, 
1.36328125, -543, 0, 7, -0.207138061523438, -0.207138061523438, None, 
1.365234375, -548, 0, 7, -0.20904541015625, -0.20904541015625, None, 
1.3671875, -555, 0, 7, -0.211715698242188, -0.211715698242188, None, 
1.369140625, -563, 0, 7, -0.214767456054688, -0.214767456054688, None, 
1.37109375, -568, 0, 7, -0.2166748046875, -0.2166748046875, None, 
1.373046875, -574, 2, 7, -0.218963623046875, -0.218963623046875, None, 
1.375, -574, 0, 7, -0.218963623046875, -0.218963623046875, None, 
1.376953125, -570, 0, 7, -0.217437744140625, -0.217437744140625, None, 
1.37890625, -566, 0, 7, -0.215911865234375, -0.215911865234375, None, 
1.380859375, -566, 0, 7, -0.215911865234375, -0.215911865234375, None, 
1.3828125, -562, 0, 7, -0.214385986328125, -0.214385986328125, None, 
1.384765625, -565, 0, 7, -0.215530395507813, -0.215530395507813, None, 
1.38671875, -569, 0, 7, -0.217056274414063, -0.217056274414063, None, 
1.388671875, -569, 0, 7, -0.217056274414063, -0.217056274414063, None, 
1.390625, -580, 0, 7, -0.22125244140625, -0.22125244140625, None, 
1.392578125, -594, 0, 7, -0.226593017578125, -0.226593017578125, None, 
1.39453125, -588, 0, 7, -0.22430419921875, -0.22430419921875, None, 
1.396484375, -585, 0, 7, -0.223159790039063, -0.223159790039063, None, 
1.3984375, -585, 0, 7, -0.223159790039063, -0.223159790039063, None, 
1.400390625, -566, 0, 7, -0.215911865234375, -0.215911865234375, None, 
1.40234375, -552, 0, 7, -0.2105712890625, -0.2105712890625, None, 
1.404296875, -535, 2, 7, -0.204086303710938, -0.204086303710938, None, 
1.40625, -526, 0, 7, -0.200653076171875, -0.200653076171875, None, 
1.408203125, -528, 0, 7, -0.201416015625, -0.201416015625, None, 
1.41015625, -537, 0, 7, -0.204849243164063, -0.204849243164063, None, 
1.412109375, -543, 0, 7, -0.207138061523438, -0.207138061523438, None, 
1.4140625, -568, 0, 7, -0.2166748046875, -0.2166748046875, None, 
1.416015625, -581, 0, 7, -0.221633911132813, -0.221633911132813, None, 
1.41796875, -569, 0, 7, -0.217056274414063, -0.217056274414063, None, 
1.419921875, -560, 0, 7, -0.213623046875, -0.213623046875, None, 
1.421875, -540, 0, 7, -0.20599365234375, -0.20599365234375, None, 
1.423828125, -500, 0, 7, -0.19073486328125, -0.19073486328125, None, 
1.42578125, -449, 0, 7, -0.171279907226563, -0.171279907226563, None, 
1.427734375, -387, 0, 7, -0.147628784179688, -0.147628784179688, None, 
1.4296875, -316, 0, 7, -0.12054443359375, -0.12054443359375, None, 
1.431640625, -236, 0, 7, -0.09002685546875, -0.09002685546875, None, 
1.43359375, -140, 0, 7, -0.05340576171875, -0.05340576171875, None, 
1.435546875, -31, 2, 7, -0.0118255615234375, -0.0118255615234375, None, 
1.4375, 85, 0, 7, 0.0324249267578125, 0.0324249267578125, None, 
1.439453125, 209, 0, 7, 0.0797271728515625, 0.0797271728515625, None, 
1.44140625, 325, 0, 7, 0.123977661132813, 0.123977661132813, None, 
1.443359375, 409, 0, 7, 0.156021118164063, 0.156021118164063, None, 
1.4453125, 446, 0, 7, 0.170135498046875, 0.170135498046875, None, 
1.447265625, 423, 0, 7, 0.161361694335938, 0.161361694335938, None, 
1.44921875, 340, 0, 7, 0.12969970703125, 0.12969970703125, None, 
1.451171875, 194, 0, 7, 0.074005126953125, 0.074005126953125, None, 
1.453125, -2, 0, 7, -0.000762939453125, -0.000762939453125, None, 
1.455078125, -214, 0, 7, -0.081634521484375, -0.081634521484375, None, 
1.45703125, -414, 0, 7, -0.157928466796875, -0.157928466796875, None, 
1.458984375, -584, 0, 7, -0.2227783203125, -0.2227783203125, None, 
1.4609375, -721, 0, 7, -0.275039672851563, -0.275039672851563, None, 
1.462890625, -807, 0, 7, -0.307846069335938, -0.307846069335938, None, 
1.46484375, -854, 0, 7, -0.325775146484375, -0.325775146484375, None, 
1.466796875, -867, 2, 7, -0.330734252929688, -0.330734252929688, None, 
1.46875, -856, 0, 7, -0.3265380859375, -0.3265380859375, None, 
1.470703125, -824, 0, 7, -0.3143310546875, -0.3143310546875, None, 
1.47265625, -790, 0, 7, -0.301361083984375, -0.301361083984375, None, 
1.474609375, -755, 0, 7, -0.288009643554688, -0.288009643554688, None, 
1.4765625, -719, 0, 7, -0.274276733398438, -0.274276733398438, None, 
1.478515625, -692, 0, 7, -0.26397705078125, -0.26397705078125, None, 
1.48046875, -670, 0, 7, -0.255584716796875, -0.255584716796875, None, 
1.482421875, -645, 0, 7, -0.246047973632813, -0.246047973632813, None, 
1.484375, -626, 0, 7, -0.238800048828125, -0.238800048828125, None, 
1.486328125, -614, 0, 7, -0.234222412109375, -0.234222412109375, None, 
1.48828125, -595, 0, 7, -0.226974487304688, -0.226974487304688, None, 
1.490234375, -580, 0, 7, -0.22125244140625, -0.22125244140625, None, 
1.4921875, -564, 0, 7, -0.21514892578125, -0.21514892578125, None, 
1.494140625, -544, 0, 7, -0.20751953125, -0.20751953125, None, 
1.49609375, -531, 0, 7, -0.202560424804688, -0.202560424804688, None, 
1.498046875, -522, 2, 7, -0.199127197265625, -0.199127197265625, None, 
1.5, -511, 0, 7, -0.194931030273438, -0.194931030273438, None, 
1.501953125, -515, 0, 7, -0.196456909179688, -0.196456909179688, None, 
1.50390625, -525, 0, 7, -0.200271606445313, -0.200271606445313, None, 
1.505859375, -530, 0, 7, -0.202178955078125, -0.202178955078125, None, 
1.5078125, -534, 0, 7, -0.203704833984375, -0.203704833984375, None, 
1.509765625, -542, 0, 7, -0.206756591796875, -0.206756591796875, None, 
1.51171875, -539, 0, 7, -0.205612182617188, -0.205612182617188, None, 
1.513671875, -534, 0, 7, -0.203704833984375, -0.203704833984375, None, 
1.515625, -530, 0, 7, -0.202178955078125, -0.202178955078125, None, 
1.517578125, -530, 0, 7, -0.202178955078125, -0.202178955078125, None, 
1.51953125, -536, 0, 7, -0.2044677734375, -0.2044677734375, None, 
1.521484375, -538, 0, 7, -0.205230712890625, -0.205230712890625, None, 
1.5234375, -542, 0, 7, -0.206756591796875, -0.206756591796875, None, 
1.525390625, -546, 0, 7, -0.208282470703125, -0.208282470703125, None, 
1.52734375, -546, 0, 7, -0.208282470703125, -0.208282470703125, None, 
1.529296875, -545, 2, 7, -0.207901000976563, -0.207901000976563, None, 
1.53125, -543, 0, 7, -0.207138061523438, -0.207138061523438, None, 
1.533203125, -542, 0, 7, -0.206756591796875, -0.206756591796875, None, 
1.53515625, -537, 0, 7, -0.204849243164063, -0.204849243164063, None, 
1.537109375, -525, 0, 7, -0.200271606445313, -0.200271606445313, None, 
1.5390625, -509, 0, 7, -0.194168090820313, -0.194168090820313, None, 
1.541015625, -498, 0, 7, -0.189971923828125, -0.189971923828125, None, 
1.54296875, -491, 0, 7, -0.187301635742188, -0.187301635742188, None, 
1.544921875, -479, 0, 7, -0.182723999023438, -0.182723999023438, None, 
1.546875, -481, 0, 7, -0.183486938476563, -0.183486938476563, None, 
1.548828125, -500, 0, 7, -0.19073486328125, -0.19073486328125, None, 
1.55078125, -514, 0, 7, -0.196075439453125, -0.196075439453125, None, 
1.552734375, -536, 0, 7, -0.2044677734375, -0.2044677734375, None, 
1.5546875, -568, 0, 7, -0.2166748046875, -0.2166748046875, None, 
1.556640625, -583, 0, 7, -0.222396850585938, -0.222396850585938, None, 
1.55859375, -581, 0, 7, -0.221633911132813, -0.221633911132813, None, 
1.560546875, -576, 2, 7, -0.2197265625, -0.2197265625, None, 
1.5625, -563, 0, 7, -0.214767456054688, -0.214767456054688, None, 
1.564453125, -545, 0, 7, -0.207901000976563, -0.207901000976563, None, 
1.56640625, -527, 0, 7, -0.201034545898438, -0.201034545898438, None, 
1.568359375, -503, 0, 7, -0.191879272460938, -0.191879272460938, None, 
1.5703125, -489, 0, 7, -0.186538696289063, -0.186538696289063, None, 
1.572265625, -490, 0, 7, -0.186920166015625, -0.186920166015625, None, 
1.57421875, -488, 0, 7, -0.1861572265625, -0.1861572265625, None, 
1.576171875, -489, 0, 7, -0.186538696289063, -0.186538696289063, None, 
1.578125, -500, 0, 7, -0.19073486328125, -0.19073486328125, None, 
1.580078125, -497, 0, 7, -0.189590454101563, -0.189590454101563, None, 
1.58203125, -492, 0, 7, -0.18768310546875, -0.18768310546875, None, 
1.583984375, -495, 0, 7, -0.188827514648438, -0.188827514648438, None, 
1.5859375, -503, 0, 7, -0.191879272460938, -0.191879272460938, None, 
1.587890625, -508, 0, 7, -0.19378662109375, -0.19378662109375, None, 
1.58984375, -510, 0, 7, -0.194549560546875, -0.194549560546875, None, 
1.591796875, -509, 2, 7, -0.194168090820313, -0.194168090820313, None, 
1.59375, -499, 0, 7, -0.190353393554688, -0.190353393554688, None, 
1.595703125, -485, 0, 7, -0.185012817382813, -0.185012817382813, None, 
1.59765625, -473, 0, 7, -0.180435180664063, -0.180435180664063, None, 
1.599609375, -461, 0, 7, -0.175857543945313, -0.175857543945313, None, 
1.6015625, -454, 0, 7, -0.173187255859375, -0.173187255859375, None, 
1.603515625, -456, 0, 7, -0.1739501953125, -0.1739501953125, None, 
1.60546875, -466, 0, 7, -0.177764892578125, -0.177764892578125, None, 
1.607421875, -475, 0, 7, -0.181198120117188, -0.181198120117188, None, 
1.609375, -488, 0, 7, -0.1861572265625, -0.1861572265625, None, 
1.611328125, -480, 0, 7, -0.18310546875, -0.18310546875, None, 
1.61328125, -466, 0, 7, -0.177764892578125, -0.177764892578125, None, 
1.615234375, -462, 0, 7, -0.176239013671875, -0.176239013671875, None, 
1.6171875, -458, 0, 7, -0.174713134765625, -0.174713134765625, None, 
1.619140625, -454, 0, 7, -0.173187255859375, -0.173187255859375, None, 
1.62109375, -464, 0, 7, -0.177001953125, -0.177001953125, None, 
1.623046875, -475, 2, 7, -0.181198120117188, -0.181198120117188, None, 
1.625, -492, 0, 7, -0.18768310546875, -0.18768310546875, None, 
1.626953125, -502, 0, 7, -0.191497802734375, -0.191497802734375, None, 
1.62890625, -504, 0, 7, -0.1922607421875, -0.1922607421875, None, 
1.630859375, -508, 0, 7, -0.19378662109375, -0.19378662109375, None, 
1.6328125, -498, 0, 7, -0.189971923828125, -0.189971923828125, None, 
1.634765625, -477, 0, 7, -0.181961059570313, -0.181961059570313, None, 
1.63671875, -462, 0, 7, -0.176239013671875, -0.176239013671875, None, 
1.638671875, -460, 0, 7, -0.17547607421875, -0.17547607421875, None, 
1.640625, -450, 0, 7, -0.171661376953125, -0.171661376953125, None, 
1.642578125, -441, 0, 7, -0.168228149414063, -0.168228149414063, None, 
1.64453125, -438, 0, 7, -0.167083740234375, -0.167083740234375, None, 
1.646484375, -435, 0, 7, -0.165939331054688, -0.165939331054688, None, 
1.6484375, -437, 0, 7, -0.166702270507813, -0.166702270507813, None, 
1.650390625, -434, 0, 7, -0.165557861328125, -0.165557861328125, None, 
1.65234375, -430, 0, 7, -0.164031982421875, -0.164031982421875, None, 
1.654296875, -442, 2, 7, -0.168609619140625, -0.168609619140625, None, 
1.65625, -446, 0, 7, -0.170135498046875, -0.170135498046875, None, 
1.658203125, -454, 0, 7, -0.173187255859375, -0.173187255859375, None, 
1.66015625, -473, 0, 7, -0.180435180664063, -0.180435180664063, None, 
1.662109375, -487, 0, 7, -0.185775756835938, -0.185775756835938, None, 
1.6640625, -482, 0, 7, -0.183868408203125, -0.183868408203125, None, 
1.666015625, -475, 0, 7, -0.181198120117188, -0.181198120117188, None, 
1.66796875, -456, 0, 7, -0.1739501953125, -0.1739501953125, None, 
1.669921875, -435, 0, 7, -0.165939331054688, -0.165939331054688, None, 
1.671875, -415, 0, 7, -0.158309936523438, -0.158309936523438, None, 
1.673828125, -391, 0, 7, -0.149154663085938, -0.149154663085938, None, 
1.67578125, -382, 0, 7, -0.145721435546875, -0.145721435546875, None, 
1.677734375, -386, 0, 7, -0.147247314453125, -0.147247314453125, None, 
1.6796875, -399, 0, 7, -0.152206420898438, -0.152206420898438, None, 
1.681640625, -417, 0, 7, -0.159072875976563, -0.159072875976563, None, 
1.68359375, -440, 0, 7, -0.1678466796875, -0.1678466796875, None, 
1.685546875, -454, 2, 7, -0.173187255859375, -0.173187255859375, None, 
1.6875, -466, 0, 7, -0.177764892578125, -0.177764892578125, None, 
1.689453125, -477, 0, 7, -0.181961059570313, -0.181961059570313, None, 
1.69140625, -476, 0, 7, -0.18157958984375, -0.18157958984375, None, 
1.693359375, -470, 0, 7, -0.179290771484375, -0.179290771484375, None, 
1.6953125, -460, 0, 7, -0.17547607421875, -0.17547607421875, None, 
1.697265625, -449, 0, 7, -0.171279907226563, -0.171279907226563, None, 
1.69921875, -440, 0, 7, -0.1678466796875, -0.1678466796875, None, 
1.701171875, -428, 0, 7, -0.16326904296875, -0.16326904296875, None, 
1.703125, -431, 0, 7, -0.164413452148438, -0.164413452148438, None, 
1.705078125, -438, 0, 7, -0.167083740234375, -0.167083740234375, None, 
1.70703125, -430, 0, 7, -0.164031982421875, -0.164031982421875, None, 
1.708984375, -428, 0, 7, -0.16326904296875, -0.16326904296875, None, 
1.7109375, -429, 0, 7, -0.163650512695313, -0.163650512695313, None, 
1.712890625, -424, 0, 7, -0.1617431640625, -0.1617431640625, None, 
1.71484375, -422, 0, 7, -0.160980224609375, -0.160980224609375, None, 
1.716796875, -425, 2, 7, -0.162124633789063, -0.162124633789063, None, 
1.71875, -428, 0, 7, -0.16326904296875, -0.16326904296875, None, 
1.720703125, -439, 0, 7, -0.167465209960938, -0.167465209960938, None, 
1.72265625, -448, 0, 7, -0.1708984375, -0.1708984375, None, 
1.724609375, -452, 0, 7, -0.17242431640625, -0.17242431640625, None, 
1.7265625, -467, 0, 7, -0.178146362304688, -0.178146362304688, None, 
1.728515625, -474, 0, 7, -0.180816650390625, -0.180816650390625, None, 
1.73046875, -472, 0, 7, -0.1800537109375, -0.1800537109375, None, 
1.732421875, -476, 0, 7, -0.18157958984375, -0.18157958984375, None, 
1.734375, -484, 0, 7, -0.18463134765625, -0.18463134765625, None, 
1.736328125, -489, 0, 7, -0.186538696289063, -0.186538696289063, None, 
1.73828125, -502, 0, 7, -0.191497802734375, -0.191497802734375, None, 
1.740234375, -513, 0, 7, -0.195693969726563, -0.195693969726563, None, 
1.7421875, -520, 0, 7, -0.1983642578125, -0.1983642578125, None, 
1.744140625, -529, 0, 7, -0.201797485351563, -0.201797485351563, None, 
1.74609375, -528, 0, 7, -0.201416015625, -0.201416015625, None, 
1.748046875, -523, 2, 7, -0.199508666992188, -0.199508666992188, None, 
1.75, -525, 0, 7, -0.200271606445313, -0.200271606445313, None, 
1.751953125, -522, 0, 7, -0.199127197265625, -0.199127197265625, None, 
1.75390625, -521, 0, 7, -0.198745727539063, -0.198745727539063, None, 
1.755859375, -537, 0, 7, -0.204849243164063, -0.204849243164063, None, 
1.7578125, -554, 0, 7, -0.211334228515625, -0.211334228515625, None, 
1.759765625, -565, 0, 7, -0.215530395507813, -0.215530395507813, None, 
1.76171875, -578, 0, 7, -0.220489501953125, -0.220489501953125, None, 
1.763671875, -583, 0, 7, -0.222396850585938, -0.222396850585938, None, 
1.765625, -580, 0, 7, -0.22125244140625, -0.22125244140625, None, 
1.767578125, -579, 0, 7, -0.220870971679688, -0.220870971679688, None, 
1.76953125, -579, 0, 7, -0.220870971679688, -0.220870971679688, None, 
1.771484375, -582, 0, 7, -0.222015380859375, -0.222015380859375, None, 
1.7734375, -597, 0, 7, -0.227737426757813, -0.227737426757813, None, 
1.775390625, -605, 0, 7, -0.230789184570313, -0.230789184570313, None, 
1.77734375, -606, 0, 7, -0.231170654296875, -0.231170654296875, None, 
1.779296875, -609, 2, 7, -0.232315063476563, -0.232315063476563, None, 
1.78125, -601, 0, 7, -0.229263305664063, -0.229263305664063, None, 
1.783203125, -585, 0, 7, -0.223159790039063, -0.223159790039063, None, 
1.78515625, -583, 0, 7, -0.222396850585938, -0.222396850585938, None, 
1.787109375, -589, 0, 7, -0.224685668945313, -0.224685668945313, None, 
1.7890625, -596, 0, 7, -0.22735595703125, -0.22735595703125, None, 
1.791015625, -607, 0, 7, -0.231552124023438, -0.231552124023438, None, 
1.79296875, -616, 0, 7, -0.2349853515625, -0.2349853515625, None, 
1.794921875, -611, 0, 7, -0.233078002929688, -0.233078002929688, None, 
1.796875, -600, 0, 7, -0.2288818359375, -0.2288818359375, None, 
1.798828125, -591, 0, 7, -0.225448608398438, -0.225448608398438, None, 
1.80078125, -587, 0, 7, -0.223922729492188, -0.223922729492188, None, 
1.802734375, -591, 0, 7, -0.225448608398438, -0.225448608398438, None, 
1.8046875, -603, 0, 7, -0.230026245117188, -0.230026245117188, None, 
1.806640625, -623, 0, 7, -0.237655639648438, -0.237655639648438, None, 
1.80859375, -635, 0, 7, -0.242233276367188, -0.242233276367188, None, 
1.810546875, -653, 2, 7, -0.249099731445313, -0.249099731445313, None, 
1.8125, -659, 0, 7, -0.251388549804688, -0.251388549804688, None, 
1.814453125, -646, 0, 7, -0.246429443359375, -0.246429443359375, None, 
1.81640625, -629, 0, 7, -0.239944458007813, -0.239944458007813, None, 
1.818359375, -611, 0, 7, -0.233078002929688, -0.233078002929688, None, 
1.8203125, -593, 0, 7, -0.226211547851563, -0.226211547851563, None, 
1.822265625, -589, 0, 7, -0.224685668945313, -0.224685668945313, None, 
1.82421875, -586, 0, 7, -0.223541259765625, -0.223541259765625, None, 
1.826171875, -581, 0, 7, -0.221633911132813, -0.221633911132813, None, 
1.828125, -579, 0, 7, -0.220870971679688, -0.220870971679688, None, 
1.830078125, -577, 0, 7, -0.220108032226563, -0.220108032226563, None, 
1.83203125, -570, 0, 7, -0.217437744140625, -0.217437744140625, None, 
1.833984375, -565, 0, 7, -0.215530395507813, -0.215530395507813, None, 
1.8359375, -572, 0, 7, -0.21820068359375, -0.21820068359375, None, 
1.837890625, -582, 0, 7, -0.222015380859375, -0.222015380859375, None, 
1.83984375, -597, 0, 7, -0.227737426757813, -0.227737426757813, None, 
1.841796875, -607, 2, 7, -0.231552124023438, -0.231552124023438, None, 
1.84375, -614, 0, 7, -0.234222412109375, -0.234222412109375, None, 
1.845703125, -618, 0, 7, -0.235748291015625, -0.235748291015625, None, 
1.84765625, -609, 0, 7, -0.232315063476563, -0.232315063476563, None, 
1.849609375, -602, 0, 7, -0.229644775390625, -0.229644775390625, None, 
1.8515625, -602, 0, 7, -0.229644775390625, -0.229644775390625, None, 
1.853515625, -608, 0, 7, -0.23193359375, -0.23193359375, None, 
1.85546875, -609, 0, 7, -0.232315063476563, -0.232315063476563, None, 
1.857421875, -614, 0, 7, -0.234222412109375, -0.234222412109375, None, 
1.859375, -621, 0, 7, -0.236892700195313, -0.236892700195313, None, 
1.861328125, -626, 0, 7, -0.238800048828125, -0.238800048828125, None, 
1.86328125, -616, 0, 7, -0.2349853515625, -0.2349853515625, None, 
1.865234375, -604, 0, 7, -0.23040771484375, -0.23040771484375, None, 
1.8671875, -597, 0, 7, -0.227737426757813, -0.227737426757813, None, 
1.869140625, -597, 0, 7, -0.227737426757813, -0.227737426757813, None, 
1.87109375, -597, 0, 7, -0.227737426757813, -0.227737426757813, None, 
1.873046875, -606, 2, 7, -0.231170654296875, -0.231170654296875, None, 
1.875, -611, 0, 7, -0.233078002929688, -0.233078002929688, None, 
1.876953125, -610, 0, 7, -0.232696533203125, -0.232696533203125, None, 
1.87890625, -608, 0, 7, -0.23193359375, -0.23193359375, None, 
1.880859375, -609, 0, 7, -0.232315063476563, -0.232315063476563, None, 
1.8828125, -606, 0, 7, -0.231170654296875, -0.231170654296875, None, 
1.884765625, -608, 0, 7, -0.23193359375, -0.23193359375, None, 
1.88671875, -610, 0, 7, -0.232696533203125, -0.232696533203125, None, 
1.888671875, -621, 0, 7, -0.236892700195313, -0.236892700195313, None, 
1.890625, -634, 0, 7, -0.241851806640625, -0.241851806640625, None, 
1.892578125, -631, 0, 7, -0.240707397460938, -0.240707397460938, None, 
1.89453125, -626, 0, 7, -0.238800048828125, -0.238800048828125, None, 
1.896484375, -616, 0, 7, -0.2349853515625, -0.2349853515625, None, 
1.8984375, -601, 0, 7, -0.229263305664063, -0.229263305664063, None, 
1.900390625, -590, 0, 7, -0.225067138671875, -0.225067138671875, None, 
1.90234375, -584, 0, 7, -0.2227783203125, -0.2227783203125, None, 
1.904296875, -577, 2, 7, -0.220108032226563, -0.220108032226563, None, 
1.90625, -576, 0, 7, -0.2197265625, -0.2197265625, None, 
1.908203125, -582, 0, 7, -0.222015380859375, -0.222015380859375, None, 
1.91015625, -591, 0, 7, -0.225448608398438, -0.225448608398438, None, 
1.912109375, -605, 0, 7, -0.230789184570313, -0.230789184570313, None, 
1.9140625, -610, 0, 7, -0.232696533203125, -0.232696533203125, None, 
1.916015625, -610, 0, 7, -0.232696533203125, -0.232696533203125, None, 
1.91796875, -616, 0, 7, -0.2349853515625, -0.2349853515625, None, 
1.919921875, -619, 0, 7, -0.236129760742188, -0.236129760742188, None, 
1.921875, -619, 0, 7, -0.236129760742188, -0.236129760742188, None, 
1.923828125, -612, 0, 7, -0.23345947265625, -0.23345947265625, None, 
1.92578125, -595, 0, 7, -0.226974487304688, -0.226974487304688, None, 
1.927734375, -581, 0, 7, -0.221633911132813, -0.221633911132813, None, 
1.9296875, -573, 0, 7, -0.218582153320313, -0.218582153320313, None, 
1.931640625, -568, 0, 7, -0.2166748046875, -0.2166748046875, None, 
1.93359375, -575, 0, 7, -0.219345092773438, -0.219345092773438, None, 
1.935546875, -592, 2, 7, -0.225830078125, -0.225830078125, None, 
1.9375, -610, 0, 7, -0.232696533203125, -0.232696533203125, None, 
1.939453125, -633, 0, 7, -0.241470336914063, -0.241470336914063, None, 
1.94140625, -643, 0, 7, -0.245285034179688, -0.245285034179688, None, 
1.943359375, -641, 0, 7, -0.244522094726563, -0.244522094726563, None, 
1.9453125, -631, 0, 7, -0.240707397460938, -0.240707397460938, None, 
1.947265625, -611, 0, 7, -0.233078002929688, -0.233078002929688, None, 
1.94921875, -596, 0, 7, -0.22735595703125, -0.22735595703125, None, 
1.951171875, -590, 0, 7, -0.225067138671875, -0.225067138671875, None, 
1.953125, -590, 0, 7, -0.225067138671875, -0.225067138671875, None, 
1.955078125, -593, 0, 7, -0.226211547851563, -0.226211547851563, None, 
1.95703125, -591, 0, 7, -0.225448608398438, -0.225448608398438, None, 
1.958984375, -592, 0, 7, -0.225830078125, -0.225830078125, None, 
1.9609375, -587, 0, 7, -0.223922729492188, -0.223922729492188, None, 
1.962890625, -580, 0, 7, -0.22125244140625, -0.22125244140625, None, 
1.96484375, -574, 0, 7, -0.218963623046875, -0.218963623046875, None, 
1.966796875, -582, 2, 7, -0.222015380859375, -0.222015380859375, None, 
1.96875, -594, 0, 7, -0.226593017578125, -0.226593017578125, None, 
1.970703125, -612, 0, 7, -0.23345947265625, -0.23345947265625, None, 
1.97265625, -628, 0, 7, -0.23956298828125, -0.23956298828125, None, 
1.974609375, -638, 0, 7, -0.243377685546875, -0.243377685546875, None, 
1.9765625, -646, 0, 7, -0.246429443359375, -0.246429443359375, None, 
1.978515625, -636, 0, 7, -0.24261474609375, -0.24261474609375, None, 
1.98046875, -613, 0, 7, -0.233840942382813, -0.233840942382813, None, 
1.982421875, -609, 0, 7, -0.232315063476563, -0.232315063476563, None, 
1.984375, -613, 0, 7, -0.233840942382813, -0.233840942382813, None, 
1.986328125, -603, 0, 7, -0.230026245117188, -0.230026245117188, None, 
1.98828125, -602, 0, 7, -0.229644775390625, -0.229644775390625, None, 
1.990234375, -602, 0, 7, -0.229644775390625, -0.229644775390625, None, 
1.9921875, -596, 0, 7, -0.22735595703125, -0.22735595703125, None, 
1.994140625, -595, 0, 7, -0.226974487304688, -0.226974487304688, None, 
1.99609375, -587, 0, 7, -0.223922729492188, -0.223922729492188, None, 
1.998046875, -581, 2, 7, -0.221633911132813, -0.221633911132813, None, 
2, -583, 0, 7, -0.222396850585938, -0.222396850585938, None, 
2.001953125, -575, 0, 7, -0.219345092773438, -0.219345092773438, None, 
2.00390625, -568, 0, 7, -0.2166748046875, -0.2166748046875, None, 
2.005859375, -580, 0, 7, -0.22125244140625, -0.22125244140625, None, 
2.0078125, -585, 0, 7, -0.223159790039063, -0.223159790039063, None, 
2.009765625, -581, 0, 7, -0.221633911132813, -0.221633911132813, None, 
2.01171875, -580, 0, 7, -0.22125244140625, -0.22125244140625, None, 
2.013671875, -578, 0, 7, -0.220489501953125, -0.220489501953125, None, 
2.015625, -576, 0, 7, -0.2197265625, -0.2197265625, None, 
2.017578125, -572, 0, 7, -0.21820068359375, -0.21820068359375, None, 
2.01953125, -566, 0, 7, -0.215911865234375, -0.215911865234375, None, 
2.021484375, -560, 0, 7, -0.213623046875, -0.213623046875, None, 
2.0234375, -558, 0, 7, -0.212860107421875, -0.212860107421875, None, 
2.025390625, -556, 0, 7, -0.21209716796875, -0.21209716796875, None, 
2.02734375, -558, 0, 7, -0.212860107421875, -0.212860107421875, None, 
2.029296875, -552, 2, 7, -0.2105712890625, -0.2105712890625, None, 
2.03125, -544, 0, 7, -0.20751953125, -0.20751953125, None, 
2.033203125, -546, 0, 7, -0.208282470703125, -0.208282470703125, None, 
2.03515625, -544, 0, 7, -0.20751953125, -0.20751953125, None, 
2.037109375, -547, 0, 7, -0.208663940429688, -0.208663940429688, None, 
2.0390625, -551, 0, 7, -0.210189819335938, -0.210189819335938, None, 
2.041015625, -557, 0, 7, -0.212478637695313, -0.212478637695313, None, 
2.04296875, -560, 0, 7, -0.213623046875, -0.213623046875, None, 
2.044921875, -563, 0, 7, -0.214767456054688, -0.214767456054688, None, 
2.046875, -556, 0, 7, -0.21209716796875, -0.21209716796875, None, 
2.048828125, -550, 0, 7, -0.209808349609375, -0.209808349609375, None, 
2.05078125, -539, 0, 7, -0.205612182617188, -0.205612182617188, None, 
2.052734375, -531, 0, 7, -0.202560424804688, -0.202560424804688, None, 
2.0546875, -526, 0, 7, -0.200653076171875, -0.200653076171875, None, 
2.056640625, -526, 0, 7, -0.200653076171875, -0.200653076171875, None, 
2.05859375, -529, 0, 7, -0.201797485351563, -0.201797485351563, None, 
2.060546875, -529, 2, 7, -0.201797485351563, -0.201797485351563, None, 
2.0625, -530, 0, 7, -0.202178955078125, -0.202178955078125, None, 
2.064453125, -533, 0, 7, -0.203323364257813, -0.203323364257813, None, 
2.06640625, -540, 0, 7, -0.20599365234375, -0.20599365234375, None, 
2.068359375, -537, 0, 7, -0.204849243164063, -0.204849243164063, None, 
2.0703125, -532, 0, 7, -0.20294189453125, -0.20294189453125, None, 
2.072265625, -533, 0, 7, -0.203323364257813, -0.203323364257813, None, 
2.07421875, -527, 0, 7, -0.201034545898438, -0.201034545898438, None, 
2.076171875, -521, 0, 7, -0.198745727539063, -0.198745727539063, None, 
2.078125, -516, 0, 7, -0.19683837890625, -0.19683837890625, None, 
2.080078125, -513, 0, 7, -0.195693969726563, -0.195693969726563, None, 
2.08203125, -514, 0, 7, -0.196075439453125, -0.196075439453125, None, 
2.083984375, -519, 0, 7, -0.197982788085938, -0.197982788085938, None, 
2.0859375, -528, 0, 7, -0.201416015625, -0.201416015625, None, 
2.087890625, -544, 0, 7, -0.20751953125, -0.20751953125, None, 
2.08984375, -561, 0, 7, -0.214004516601563, -0.214004516601563, None, 
2.091796875, -568, 2, 7, -0.2166748046875, -0.2166748046875, None, 
2.09375, -572, 0, 7, -0.21820068359375, -0.21820068359375, None, 
2.095703125, -574, 0, 7, -0.218963623046875, -0.218963623046875, None, 
2.09765625, -563, 0, 7, -0.214767456054688, -0.214767456054688, None, 
2.099609375, -544, 0, 7, -0.20751953125, -0.20751953125, None, 
2.1015625, -531, 0, 7, -0.202560424804688, -0.202560424804688, None, 
2.103515625, -522, 0, 7, -0.199127197265625, -0.199127197265625, None, 
2.10546875, -514, 0, 7, -0.196075439453125, -0.196075439453125, None, 
2.107421875, -516, 0, 7, -0.19683837890625, -0.19683837890625, None, 
2.109375, -523, 0, 7, -0.199508666992188, -0.199508666992188, None, 
2.111328125, -529, 0, 7, -0.201797485351563, -0.201797485351563, None, 
2.11328125, -535, 0, 7, -0.204086303710938, -0.204086303710938, None, 
2.115234375, -541, 0, 7, -0.206375122070313, -0.206375122070313, None, 
2.1171875, -544, 0, 7, -0.20751953125, -0.20751953125, None, 
2.119140625, -548, 0, 7, -0.20904541015625, -0.20904541015625, None, 
2.12109375, -554, 0, 7, -0.211334228515625, -0.211334228515625, None, 
2.123046875, -553, 2, 7, -0.210952758789063, -0.210952758789063, None, 
2.125, -548, 0, 7, -0.20904541015625, -0.20904541015625, None, 
2.126953125, -540, 0, 7, -0.20599365234375, -0.20599365234375, None, 
2.12890625, -527, 0, 7, -0.201034545898438, -0.201034545898438, None, 
2.130859375, -521, 0, 7, -0.198745727539063, -0.198745727539063, None, 
2.1328125, -518, 0, 7, -0.197601318359375, -0.197601318359375, None, 
2.134765625, -518, 0, 7, -0.197601318359375, -0.197601318359375, None, 
2.13671875, -521, 0, 7, -0.198745727539063, -0.198745727539063, None, 
2.138671875, -521, 0, 7, -0.198745727539063, -0.198745727539063, None, 
2.140625, -520, 0, 7, -0.1983642578125, -0.1983642578125, None, 
2.142578125, -514, 0, 7, -0.196075439453125, -0.196075439453125, None, 
2.14453125, -500, 0, 7, -0.19073486328125, -0.19073486328125, None, 
2.146484375, -480, 0, 7, -0.18310546875, -0.18310546875, None, 
2.1484375, -474, 0, 7, -0.180816650390625, -0.180816650390625, None, 
2.150390625, -476, 0, 7, -0.18157958984375, -0.18157958984375, None, 
2.15234375, -484, 0, 7, -0.18463134765625, -0.18463134765625, None, 
2.154296875, -502, 2, 7, -0.191497802734375, -0.191497802734375, None, 
2.15625, -512, 0, 7, -0.1953125, -0.1953125, None, 
2.158203125, -507, 0, 7, -0.193405151367188, -0.193405151367188, None, 
2.16015625, -492, 0, 7, -0.18768310546875, -0.18768310546875, None, 
2.162109375, -454, 0, 7, -0.173187255859375, -0.173187255859375, None, 
2.1640625, -398, 0, 7, -0.151824951171875, -0.151824951171875, None, 
2.166015625, -329, 0, 7, -0.125503540039063, -0.125503540039063, None, 
2.16796875, -244, 0, 7, -0.09307861328125, -0.09307861328125, None, 
2.169921875, -156, 0, 7, -0.05950927734375, -0.05950927734375, None, 
2.171875, -69, 0, 7, -0.0263214111328125, -0.0263214111328125, None, 
2.173828125, 39, 0, 7, 0.0148773193359375, 0.0148773193359375, None, 
2.17578125, 161, 0, 7, 0.0614166259765625, 0.0614166259765625, None, 
2.177734375, 279, 0, 7, 0.106430053710938, 0.106430053710938, None, 
2.1796875, 397, 0, 7, 0.151443481445313, 0.151443481445313, None, 
2.181640625, 485, 0, 7, 0.185012817382813, 0.185012817382813, None, 
2.18359375, 514, 0, 7, 0.196075439453125, 0.196075439453125, None, 
2.185546875, 492, 2, 7, 0.18768310546875, 0.18768310546875, None, 
2.1875, 400, 0, 7, 0.152587890625, 0.152587890625, None, 
2.189453125, 237, 0, 7, 0.0904083251953125, 0.0904083251953125, None, 
2.19140625, 43, 0, 7, 0.0164031982421875, 0.0164031982421875, None, 
2.193359375, -159, 0, 7, -0.0606536865234375, -0.0606536865234375, None, 
2.1953125, -353, 0, 7, -0.134658813476563, -0.134658813476563, None, 
2.197265625, -506, 0, 7, -0.193023681640625, -0.193023681640625, None, 
2.19921875, -621, 0, 7, -0.236892700195313, -0.236892700195313, None, 
2.201171875, -689, 0, 7, -0.262832641601563, -0.262832641601563, None, 
2.203125, -722, 0, 7, -0.275421142578125, -0.275421142578125, None, 
2.205078125, -735, 0, 7, -0.280380249023438, -0.280380249023438, None, 
2.20703125, -738, 0, 7, -0.281524658203125, -0.281524658203125, None, 
2.208984375, -724, 0, 7, -0.27618408203125, -0.27618408203125, None, 
2.2109375, -708, 0, 7, -0.27008056640625, -0.27008056640625, None, 
2.212890625, -688, 0, 7, -0.262451171875, -0.262451171875, None, 
2.21484375, -649, 0, 7, -0.247573852539063, -0.247573852539063, None, 
2.216796875, -612, 2, 7, -0.23345947265625, -0.23345947265625, None, 
2.21875, -586, 0, 7, -0.223541259765625, -0.223541259765625, None, 
2.220703125, -559, 0, 7, -0.213241577148438, -0.213241577148438, None, 
2.22265625, -528, 0, 7, -0.201416015625, -0.201416015625, None, 
2.224609375, -497, 0, 7, -0.189590454101563, -0.189590454101563, None, 
2.2265625, -466, 0, 7, -0.177764892578125, -0.177764892578125, None, 
2.228515625, -444, 0, 7, -0.16937255859375, -0.16937255859375, None, 
2.23046875, -427, 0, 7, -0.162887573242188, -0.162887573242188, None, 
2.232421875, -408, 0, 7, -0.1556396484375, -0.1556396484375, None, 
2.234375, -404, 0, 7, -0.15411376953125, -0.15411376953125, None, 
2.236328125, -409, 0, 7, -0.156021118164063, -0.156021118164063, None, 
2.23828125, -413, 0, 7, -0.157546997070313, -0.157546997070313, None, 
2.240234375, -427, 0, 7, -0.162887573242188, -0.162887573242188, None, 
2.2421875, -447, 0, 7, -0.170516967773438, -0.170516967773438, None, 
2.244140625, -450, 0, 7, -0.171661376953125, -0.171661376953125, None, 
2.24609375, -445, 0, 7, -0.169754028320313, -0.169754028320313, None, 
2.248046875, -444, 2, 7, -0.16937255859375, -0.16937255859375, None, 
2.25, -435, 0, 7, -0.165939331054688, -0.165939331054688, None, 
2.251953125, -436, 0, 7, -0.16632080078125, -0.16632080078125, None, 
2.25390625, -443, 0, 7, -0.168991088867188, -0.168991088867188, None, 
2.255859375, -448, 0, 7, -0.1708984375, -0.1708984375, None, 
2.2578125, -452, 0, 7, -0.17242431640625, -0.17242431640625, None, 
2.259765625, -455, 0, 7, -0.173568725585938, -0.173568725585938, None, 
2.26171875, -448, 0, 7, -0.1708984375, -0.1708984375, None, 
2.263671875, -439, 0, 7, -0.167465209960938, -0.167465209960938, None, 
2.265625, -435, 0, 7, -0.165939331054688, -0.165939331054688, None, 
2.267578125, -431, 0, 7, -0.164413452148438, -0.164413452148438, None, 
2.26953125, -430, 0, 7, -0.164031982421875, -0.164031982421875, None, 
2.271484375, -425, 0, 7, -0.162124633789063, -0.162124633789063, None, 
2.2734375, -425, 0, 7, -0.162124633789063, -0.162124633789063, None, 
2.275390625, -434, 0, 7, -0.165557861328125, -0.165557861328125, None, 
2.27734375, -428, 0, 7, -0.16326904296875, -0.16326904296875, None, 
2.279296875, -409, 2, 7, -0.156021118164063, -0.156021118164063, None, 
2.28125, -407, 0, 7, -0.155258178710938, -0.155258178710938, None, 
2.283203125, -408, 0, 7, -0.1556396484375, -0.1556396484375, None, 
2.28515625, -408, 0, 7, -0.1556396484375, -0.1556396484375, None, 
2.287109375, -412, 0, 7, -0.15716552734375, -0.15716552734375, None, 
2.2890625, -417, 0, 7, -0.159072875976563, -0.159072875976563, None, 
2.291015625, -421, 0, 7, -0.160598754882813, -0.160598754882813, None, 
2.29296875, -414, 0, 7, -0.157928466796875, -0.157928466796875, None, 
2.294921875, -401, 0, 7, -0.152969360351563, -0.152969360351563, None, 
2.296875, -399, 0, 7, -0.152206420898438, -0.152206420898438, None, 
2.298828125, -396, 0, 7, -0.15106201171875, -0.15106201171875, None, 
2.30078125, -378, 0, 7, -0.144195556640625, -0.144195556640625, None, 
2.302734375, -369, 0, 7, -0.140762329101563, -0.140762329101563, None, 
2.3046875, -384, 0, 7, -0.146484375, -0.146484375, None, 
2.306640625, -388, 0, 7, -0.14801025390625, -0.14801025390625, None, 
2.30859375, -390, 0, 7, -0.148773193359375, -0.148773193359375, None, 
2.310546875, -394, 2, 7, -0.150299072265625, -0.150299072265625, None, 
2.3125, -389, 0, 7, -0.148391723632813, -0.148391723632813, None, 
2.314453125, -384, 0, 7, -0.146484375, -0.146484375, None, 
2.31640625, -384, 0, 7, -0.146484375, -0.146484375, None, 
2.318359375, -383, 0, 7, -0.146102905273438, -0.146102905273438, None, 
2.3203125, -387, 0, 7, -0.147628784179688, -0.147628784179688, None, 
2.322265625, -389, 0, 7, -0.148391723632813, -0.148391723632813, None, 
2.32421875, -386, 0, 7, -0.147247314453125, -0.147247314453125, None, 
2.326171875, -390, 0, 7, -0.148773193359375, -0.148773193359375, None, 
2.328125, -398, 0, 7, -0.151824951171875, -0.151824951171875, None, 
2.330078125, -399, 0, 7, -0.152206420898438, -0.152206420898438, None, 
2.33203125, -401, 0, 7, -0.152969360351563, -0.152969360351563, None, 
2.333984375, -395, 0, 7, -0.150680541992188, -0.150680541992188, None, 
2.3359375, -378, 0, 7, -0.144195556640625, -0.144195556640625, None, 
2.337890625, -363, 0, 7, -0.138473510742188, -0.138473510742188, None, 
2.33984375, -353, 0, 7, -0.134658813476563, -0.134658813476563, None, 
2.341796875, -340, 2, 7, -0.12969970703125, -0.12969970703125, None, 
2.34375, -332, 0, 7, -0.12664794921875, -0.12664794921875, None, 
2.345703125, -328, 0, 7, -0.1251220703125, -0.1251220703125, None, 
2.34765625, -335, 0, 7, -0.127792358398438, -0.127792358398438, None, 
2.349609375, -342, 0, 7, -0.130462646484375, -0.130462646484375, None, 
2.3515625, -349, 0, 7, -0.133132934570313, -0.133132934570313, None, 
2.353515625, -356, 0, 7, -0.13580322265625, -0.13580322265625, None, 
2.35546875, -357, 0, 7, -0.136184692382813, -0.136184692382813, None, 
2.357421875, -353, 0, 7, -0.134658813476563, -0.134658813476563, None, 
2.359375, -344, 0, 7, -0.1312255859375, -0.1312255859375, None, 
2.361328125, -340, 0, 7, -0.12969970703125, -0.12969970703125, None, 
2.36328125, -343, 0, 7, -0.130844116210938, -0.130844116210938, None, 
2.365234375, -343, 0, 7, -0.130844116210938, -0.130844116210938, None, 
2.3671875, -343, 0, 7, -0.130844116210938, -0.130844116210938, None, 
2.369140625, -353, 0, 7, -0.134658813476563, -0.134658813476563, None, 
2.37109375, -354, 0, 7, -0.135040283203125, -0.135040283203125, None, 
2.373046875, -353, 2, 7, -0.134658813476563, -0.134658813476563, None, 
2.375, -352, 0, 7, -0.13427734375, -0.13427734375, None, 
2.376953125, -333, 0, 7, -0.127029418945313, -0.127029418945313, None, 
2.37890625, -316, 0, 7, -0.12054443359375, -0.12054443359375, None, 
2.380859375, -307, 0, 7, -0.117111206054688, -0.117111206054688, None, 
2.3828125, -288, 0, 7, -0.10986328125, -0.10986328125, None, 
2.384765625, -280, 0, 7, -0.1068115234375, -0.1068115234375, None, 
2.38671875, -282, 0, 7, -0.107574462890625, -0.107574462890625, None, 
2.388671875, -285, 0, 7, -0.108718872070313, -0.108718872070313, None, 
2.390625, -289, 0, 7, -0.110244750976563, -0.110244750976563, None, 
2.392578125, -295, 0, 7, -0.112533569335938, -0.112533569335938, None, 
2.39453125, -295, 0, 7, -0.112533569335938, -0.112533569335938, None, 
2.396484375, -299, 0, 7, -0.114059448242188, -0.114059448242188, None, 
2.3984375, -307, 0, 7, -0.117111206054688, -0.117111206054688, None, 
2.400390625, -303, 0, 7, -0.115585327148438, -0.115585327148438, None, 
2.40234375, -306, 0, 7, -0.116729736328125, -0.116729736328125, None, 
2.404296875, -319, 2, 7, -0.121688842773438, -0.121688842773438, None, 
2.40625, -317, 0, 7, -0.120925903320313, -0.120925903320313, None, 
2.408203125, -310, 0, 7, -0.118255615234375, -0.118255615234375, None, 
2.41015625, -306, 0, 7, -0.116729736328125, -0.116729736328125, None, 
2.412109375, -294, 0, 7, -0.112152099609375, -0.112152099609375, None, 
2.4140625, -279, 0, 7, -0.106430053710938, -0.106430053710938, None, 
2.416015625, -262, 0, 7, -0.099945068359375, -0.099945068359375, None, 
2.41796875, -251, 0, 7, -0.0957489013671875, -0.0957489013671875, None, 
2.419921875, -259, 0, 7, -0.0988006591796875, -0.0988006591796875, None, 
2.421875, -273, 0, 7, -0.104141235351563, -0.104141235351563, None, 
2.423828125, -283, 0, 7, -0.107955932617188, -0.107955932617188, None, 
2.42578125, -298, 0, 7, -0.113677978515625, -0.113677978515625, None, 
2.427734375, -315, 0, 7, -0.120162963867188, -0.120162963867188, None, 
2.4296875, -313, 0, 7, -0.119400024414063, -0.119400024414063, None, 
2.431640625, -303, 0, 7, -0.115585327148438, -0.115585327148438, None, 
2.43359375, -293, 0, 7, -0.111770629882813, -0.111770629882813, None, 
2.435546875, -272, 2, 7, -0.103759765625, -0.103759765625, None, 
2.4375, -265, 0, 7, -0.101089477539063, -0.101089477539063, None, 
2.439453125, -262, 0, 7, -0.099945068359375, -0.099945068359375, None, 
2.44140625, -259, 0, 7, -0.0988006591796875, -0.0988006591796875, None, 
2.443359375, -265, 0, 7, -0.101089477539063, -0.101089477539063, None, 
2.4453125, -276, 0, 7, -0.10528564453125, -0.10528564453125, None, 
2.447265625, -270, 0, 7, -0.102996826171875, -0.102996826171875, None, 
2.44921875, -267, 0, 7, -0.101852416992188, -0.101852416992188, None, 
2.451171875, -265, 0, 7, -0.101089477539063, -0.101089477539063, None, 
2.453125, -261, 0, 7, -0.0995635986328125, -0.0995635986328125, None, 
2.455078125, -259, 0, 7, -0.0988006591796875, -0.0988006591796875, None, 
2.45703125, -265, 0, 7, -0.101089477539063, -0.101089477539063, None, 
2.458984375, -272, 0, 7, -0.103759765625, -0.103759765625, None, 
2.4609375, -281, 0, 7, -0.107192993164063, -0.107192993164063, None, 
2.462890625, -286, 0, 7, -0.109100341796875, -0.109100341796875, None, 
2.46484375, -274, 0, 7, -0.104522705078125, -0.104522705078125, None, 
2.466796875, -272, 2, 7, -0.103759765625, -0.103759765625, None, 
2.46875, -275, 0, 7, -0.104904174804688, -0.104904174804688, None, 
2.470703125, -281, 0, 7, -0.107192993164063, -0.107192993164063, None, 
2.47265625, -293, 0, 7, -0.111770629882813, -0.111770629882813, None, 
2.474609375, -307, 0, 7, -0.117111206054688, -0.117111206054688, None, 
2.4765625, -316, 0, 7, -0.12054443359375, -0.12054443359375, None, 
2.478515625, -328, 0, 7, -0.1251220703125, -0.1251220703125, None, 
2.48046875, -330, 0, 7, -0.125885009765625, -0.125885009765625, None, 
2.482421875, -328, 0, 7, -0.1251220703125, -0.1251220703125, None, 
2.484375, -327, 0, 7, -0.124740600585938, -0.124740600585938, None, 
2.486328125, -321, 0, 7, -0.122451782226563, -0.122451782226563, None, 
2.48828125, -326, 0, 7, -0.124359130859375, -0.124359130859375, None, 
2.490234375, -340, 0, 7, -0.12969970703125, -0.12969970703125, None, 
2.4921875, -348, 0, 7, -0.13275146484375, -0.13275146484375, None, 
2.494140625, -357, 0, 7, -0.136184692382813, -0.136184692382813, None, 
2.49609375, -363, 0, 7, -0.138473510742188, -0.138473510742188, None, 
2.498046875, -358, 2, 7, -0.136566162109375, -0.136566162109375, None, 
2.5, -358, 0, 7, -0.136566162109375, -0.136566162109375, None, 
2.501953125, -364, 0, 7, -0.13885498046875, -0.13885498046875, None, 
2.50390625, -370, 0, 7, -0.141143798828125, -0.141143798828125, None, 
2.505859375, -380, 0, 7, -0.14495849609375, -0.14495849609375, None, 
2.5078125, -393, 0, 7, -0.149917602539063, -0.149917602539063, None, 
2.509765625, -400, 0, 7, -0.152587890625, -0.152587890625, None, 
2.51171875, -405, 0, 7, -0.154495239257813, -0.154495239257813, None, 
2.513671875, -402, 0, 7, -0.153350830078125, -0.153350830078125, None, 
2.515625, -396, 0, 7, -0.15106201171875, -0.15106201171875, None, 
2.517578125, -391, 0, 7, -0.149154663085938, -0.149154663085938, None, 
2.51953125, -384, 0, 7, -0.146484375, -0.146484375, None, 
2.521484375, -386, 0, 7, -0.147247314453125, -0.147247314453125, None, 
2.5234375, -400, 0, 7, -0.152587890625, -0.152587890625, None, 
2.525390625, -409, 0, 7, -0.156021118164063, -0.156021118164063, None, 
2.52734375, -417, 0, 7, -0.159072875976563, -0.159072875976563, None, 
2.529296875, -425, 2, 7, -0.162124633789063, -0.162124633789063, None, 
2.53125, -430, 0, 7, -0.164031982421875, -0.164031982421875, None, 
2.533203125, -431, 0, 7, -0.164413452148438, -0.164413452148438, None, 
2.53515625, -431, 0, 7, -0.164413452148438, -0.164413452148438, None, 
2.537109375, -423, 0, 7, -0.161361694335938, -0.161361694335938, None, 
2.5390625, -419, 0, 7, -0.159835815429688, -0.159835815429688, None, 
2.541015625, -418, 0, 7, -0.159454345703125, -0.159454345703125, None, 
2.54296875, -409, 0, 7, -0.156021118164063, -0.156021118164063, None, 
2.544921875, -411, 0, 7, -0.156784057617188, -0.156784057617188, None, 
2.546875, -418, 0, 7, -0.159454345703125, -0.159454345703125, None, 
2.548828125, -420, 0, 7, -0.16021728515625, -0.16021728515625, None, 
2.55078125, -423, 0, 7, -0.161361694335938, -0.161361694335938, None, 
2.552734375, -424, 0, 7, -0.1617431640625, -0.1617431640625, None, 
2.5546875, -423, 0, 7, -0.161361694335938, -0.161361694335938, None, 
2.556640625, -431, 0, 7, -0.164413452148438, -0.164413452148438, None, 
2.55859375, -440, 0, 7, -0.1678466796875, -0.1678466796875, None, 
2.560546875, -435, 2, 7, -0.165939331054688, -0.165939331054688, None, 
2.5625, -437, 0, 7, -0.166702270507813, -0.166702270507813, None, 
2.564453125, -437, 0, 7, -0.166702270507813, -0.166702270507813, None, 
2.56640625, -435, 0, 7, -0.165939331054688, -0.165939331054688, None, 
2.568359375, -433, 0, 7, -0.165176391601563, -0.165176391601563, None, 
2.5703125, -432, 0, 7, -0.164794921875, -0.164794921875, None, 
2.572265625, -428, 0, 7, -0.16326904296875, -0.16326904296875, None, 
2.57421875, -425, 0, 7, -0.162124633789063, -0.162124633789063, None, 
2.576171875, -426, 0, 7, -0.162506103515625, -0.162506103515625, None, 
2.578125, -430, 0, 7, -0.164031982421875, -0.164031982421875, None, 
2.580078125, -432, 0, 7, -0.164794921875, -0.164794921875, None, 
2.58203125, -432, 0, 7, -0.164794921875, -0.164794921875, None, 
2.583984375, -427, 0, 7, -0.162887573242188, -0.162887573242188, None, 
2.5859375, -428, 0, 7, -0.16326904296875, -0.16326904296875, None, 
2.587890625, -433, 0, 7, -0.165176391601563, -0.165176391601563, None, 
2.58984375, -450, 0, 7, -0.171661376953125, -0.171661376953125, None, 
2.591796875, -464, 2, 7, -0.177001953125, -0.177001953125, None, 
2.59375, -466, 0, 7, -0.177764892578125, -0.177764892578125, None, 
2.595703125, -462, 0, 7, -0.176239013671875, -0.176239013671875, None, 
2.59765625, -450, 0, 7, -0.171661376953125, -0.171661376953125, None, 
2.599609375, -437, 0, 7, -0.166702270507813, -0.166702270507813, None, 
2.6015625, -442, 0, 7, -0.168609619140625, -0.168609619140625, None, 
2.603515625, -455, 0, 7, -0.173568725585938, -0.173568725585938, None, 
2.60546875, -474, 0, 7, -0.180816650390625, -0.180816650390625, None, 
2.607421875, -499, 0, 7, -0.190353393554688, -0.190353393554688, None, 
2.609375, -515, 0, 7, -0.196456909179688, -0.196456909179688, None, 
2.611328125, -524, 0, 7, -0.19989013671875, -0.19989013671875, None, 
2.61328125, -522, 0, 7, -0.199127197265625, -0.199127197265625, None, 
2.615234375, -501, 0, 7, -0.191116333007813, -0.191116333007813, None, 
2.6171875, -474, 0, 7, -0.180816650390625, -0.180816650390625, None, 
2.619140625, -453, 0, 7, -0.172805786132813, -0.172805786132813, None, 
2.62109375, -439, 0, 7, -0.167465209960938, -0.167465209960938, None, 
2.623046875, -432, 2, 7, -0.164794921875, -0.164794921875, None, 
2.625, -436, 0, 7, -0.16632080078125, -0.16632080078125, None, 
2.626953125, -441, 0, 7, -0.168228149414063, -0.168228149414063, None, 
2.62890625, -444, 0, 7, -0.16937255859375, -0.16937255859375, None, 
2.630859375, -449, 0, 7, -0.171279907226563, -0.171279907226563, None, 
2.6328125, -448, 0, 7, -0.1708984375, -0.1708984375, None, 
2.634765625, -456, 0, 7, -0.1739501953125, -0.1739501953125, None, 
2.63671875, -457, 0, 7, -0.174331665039063, -0.174331665039063, None, 
2.638671875, -452, 0, 7, -0.17242431640625, -0.17242431640625, None, 
2.640625, -454, 0, 7, -0.173187255859375, -0.173187255859375, None, 
2.642578125, -465, 0, 7, -0.177383422851563, -0.177383422851563, None, 
2.64453125, -469, 0, 7, -0.178909301757813, -0.178909301757813, None, 
2.646484375, -471, 0, 7, -0.179672241210938, -0.179672241210938, None, 
2.6484375, -472, 0, 7, -0.1800537109375, -0.1800537109375, None, 
2.650390625, -479, 0, 7, -0.182723999023438, -0.182723999023438, None, 
2.65234375, -481, 0, 7, -0.183486938476563, -0.183486938476563, None, 
2.654296875, -485, 2, 7, -0.185012817382813, -0.185012817382813, None, 
2.65625, -484, 0, 7, -0.18463134765625, -0.18463134765625, None, 
2.658203125, -484, 0, 7, -0.18463134765625, -0.18463134765625, None, 
2.66015625, -483, 0, 7, -0.184249877929688, -0.184249877929688, None, 
2.662109375, -478, 0, 7, -0.182342529296875, -0.182342529296875, None, 
2.6640625, -485, 0, 7, -0.185012817382813, -0.185012817382813, None, 
2.666015625, -488, 0, 7, -0.1861572265625, -0.1861572265625, None, 
2.66796875, -482, 0, 7, -0.183868408203125, -0.183868408203125, None, 
2.669921875, -475, 0, 7, -0.181198120117188, -0.181198120117188, None, 
2.671875, -473, 0, 7, -0.180435180664063, -0.180435180664063, None, 
2.673828125, -475, 0, 7, -0.181198120117188, -0.181198120117188, None, 
2.67578125, -476, 0, 7, -0.18157958984375, -0.18157958984375, None, 
2.677734375, -486, 0, 7, -0.185394287109375, -0.185394287109375, None, 
2.6796875, -495, 0, 7, -0.188827514648438, -0.188827514648438, None, 
2.681640625, -496, 0, 7, -0.189208984375, -0.189208984375, None, 
2.68359375, -492, 0, 7, -0.18768310546875, -0.18768310546875, None, 
2.685546875, -496, 2, 7, -0.189208984375, -0.189208984375, None, 
2.6875, -501, 0, 7, -0.191116333007813, -0.191116333007813, None, 
2.689453125, -497, 0, 7, -0.189590454101563, -0.189590454101563, None, 
2.69140625, -489, 0, 7, -0.186538696289063, -0.186538696289063, None, 
2.693359375, -480, 0, 7, -0.18310546875, -0.18310546875, None, 
2.6953125, -473, 0, 7, -0.180435180664063, -0.180435180664063, None, 
2.697265625, -469, 0, 7, -0.178909301757813, -0.178909301757813, None, 
2.69921875, -462, 0, 7, -0.176239013671875, -0.176239013671875, None, 
2.701171875, -462, 0, 7, -0.176239013671875, -0.176239013671875, None, 
2.703125, -461, 0, 7, -0.175857543945313, -0.175857543945313, None, 
2.705078125, -456, 0, 7, -0.1739501953125, -0.1739501953125, None, 
2.70703125, -462, 0, 7, -0.176239013671875, -0.176239013671875, None, 
2.708984375, -475, 0, 7, -0.181198120117188, -0.181198120117188, None, 
2.7109375, -476, 0, 7, -0.18157958984375, -0.18157958984375, None, 
2.712890625, -477, 0, 7, -0.181961059570313, -0.181961059570313, None, 
2.71484375, -478, 0, 7, -0.182342529296875, -0.182342529296875, None, 
2.716796875, -473, 2, 7, -0.180435180664063, -0.180435180664063, None, 
2.71875, -463, 0, 7, -0.176620483398438, -0.176620483398438, None, 
2.720703125, -458, 0, 7, -0.174713134765625, -0.174713134765625, None, 
2.72265625, -450, 0, 7, -0.171661376953125, -0.171661376953125, None, 
2.724609375, -452, 0, 7, -0.17242431640625, -0.17242431640625, None, 
2.7265625, -456, 0, 7, -0.1739501953125, -0.1739501953125, None, 
2.728515625, -467, 0, 7, -0.178146362304688, -0.178146362304688, None, 
2.73046875, -491, 0, 7, -0.187301635742188, -0.187301635742188, None, 
2.732421875, -503, 0, 7, -0.191879272460938, -0.191879272460938, None, 
2.734375, -502, 0, 7, -0.191497802734375, -0.191497802734375, None, 
2.736328125, -505, 0, 7, -0.192642211914063, -0.192642211914063, None, 
2.73828125, -490, 0, 7, -0.186920166015625, -0.186920166015625, None, 
2.740234375, -464, 0, 7, -0.177001953125, -0.177001953125, None, 
2.7421875, -451, 0, 7, -0.172042846679688, -0.172042846679688, None, 
2.744140625, -441, 0, 7, -0.168228149414063, -0.168228149414063, None, 
2.74609375, -429, 0, 7, -0.163650512695313, -0.163650512695313, None, 
2.748046875, -436, 2, 7, -0.16632080078125, -0.16632080078125, None, 
2.75, -441, 0, 7, -0.168228149414063, -0.168228149414063, None, 
2.751953125, -449, 0, 7, -0.171279907226563, -0.171279907226563, None, 
2.75390625, -462, 0, 7, -0.176239013671875, -0.176239013671875, None, 
2.755859375, -463, 0, 7, -0.176620483398438, -0.176620483398438, None, 
2.7578125, -466, 0, 7, -0.177764892578125, -0.177764892578125, None, 
2.759765625, -462, 0, 7, -0.176239013671875, -0.176239013671875, None, 
2.76171875, -455, 0, 7, -0.173568725585938, -0.173568725585938, None, 
2.763671875, -444, 0, 7, -0.16937255859375, -0.16937255859375, None, 
2.765625, -445, 0, 7, -0.169754028320313, -0.169754028320313, None, 
2.767578125, -445, 0, 7, -0.169754028320313, -0.169754028320313, None, 
2.76953125, -442, 0, 7, -0.168609619140625, -0.168609619140625, None, 
2.771484375, -448, 0, 7, -0.1708984375, -0.1708984375, None, 
2.7734375, -455, 0, 7, -0.173568725585938, -0.173568725585938, None, 
2.775390625, -452, 0, 7, -0.17242431640625, -0.17242431640625, None, 
2.77734375, -452, 0, 7, -0.17242431640625, -0.17242431640625, None, 
2.779296875, -442, 2, 7, -0.168609619140625, -0.168609619140625, None, 
2.78125, -430, 0, 7, -0.164031982421875, -0.164031982421875, None, 
2.783203125, -423, 0, 7, -0.161361694335938, -0.161361694335938, None, 
2.78515625, -415, 0, 7, -0.158309936523438, -0.158309936523438, None, 
2.787109375, -419, 0, 7, -0.159835815429688, -0.159835815429688, None, 
2.7890625, -433, 0, 7, -0.165176391601563, -0.165176391601563, None, 
2.791015625, -448, 0, 7, -0.1708984375, -0.1708984375, None, 
2.79296875, -453, 0, 7, -0.172805786132813, -0.172805786132813, None, 
2.794921875, -468, 0, 7, -0.17852783203125, -0.17852783203125, None, 
2.796875, -471, 0, 7, -0.179672241210938, -0.179672241210938, None, 
2.798828125, -469, 0, 7, -0.178909301757813, -0.178909301757813, None, 
2.80078125, -467, 0, 7, -0.178146362304688, -0.178146362304688, None, 
2.802734375, -470, 0, 7, -0.179290771484375, -0.179290771484375, None, 
2.8046875, -485, 0, 7, -0.185012817382813, -0.185012817382813, None, 
2.806640625, -495, 0, 7, -0.188827514648438, -0.188827514648438, None, 
2.80859375, -496, 0, 7, -0.189208984375, -0.189208984375, None, 
2.810546875, -501, 2, 7, -0.191116333007813, -0.191116333007813, None, 
2.8125, -498, 0, 7, -0.189971923828125, -0.189971923828125, None, 
2.814453125, -480, 0, 7, -0.18310546875, -0.18310546875, None, 
2.81640625, -463, 0, 7, -0.176620483398438, -0.176620483398438, None, 
2.818359375, -452, 0, 7, -0.17242431640625, -0.17242431640625, None, 
2.8203125, -444, 0, 7, -0.16937255859375, -0.16937255859375, None, 
2.822265625, -444, 0, 7, -0.16937255859375, -0.16937255859375, None, 
2.82421875, -449, 0, 7, -0.171279907226563, -0.171279907226563, None, 
2.826171875, -449, 0, 7, -0.171279907226563, -0.171279907226563, None, 
2.828125, -456, 0, 7, -0.1739501953125, -0.1739501953125, None, 
2.830078125, -456, 0, 7, -0.1739501953125, -0.1739501953125, None, 
2.83203125, -448, 0, 7, -0.1708984375, -0.1708984375, None, 
2.833984375, -453, 0, 7, -0.172805786132813, -0.172805786132813, None, 
2.8359375, -459, 0, 7, -0.175094604492188, -0.175094604492188, None, 
2.837890625, -466, 0, 7, -0.177764892578125, -0.177764892578125, None, 
2.83984375, -473, 0, 7, -0.180435180664063, -0.180435180664063, None, 
2.841796875, -478, 2, 7, -0.182342529296875, -0.182342529296875, None, 
2.84375, -479, 0, 7, -0.182723999023438, -0.182723999023438, None, 
2.845703125, -465, 0, 7, -0.177383422851563, -0.177383422851563, None, 
2.84765625, -453, 0, 7, -0.172805786132813, -0.172805786132813, None, 
2.849609375, -438, 0, 7, -0.167083740234375, -0.167083740234375, None, 
2.8515625, -423, 0, 7, -0.161361694335938, -0.161361694335938, None, 
2.853515625, -420, 0, 7, -0.16021728515625, -0.16021728515625, None, 
2.85546875, -418, 0, 7, -0.159454345703125, -0.159454345703125, None, 
2.857421875, -419, 0, 7, -0.159835815429688, -0.159835815429688, None, 
2.859375, -426, 0, 7, -0.162506103515625, -0.162506103515625, None, 
2.861328125, -428, 0, 7, -0.16326904296875, -0.16326904296875, None, 
2.86328125, -425, 0, 7, -0.162124633789063, -0.162124633789063, None, 
2.865234375, -425, 0, 7, -0.162124633789063, -0.162124633789063, None, 
2.8671875, -427, 0, 7, -0.162887573242188, -0.162887573242188, None, 
2.869140625, -423, 0, 7, -0.161361694335938, -0.161361694335938, None, 
2.87109375, -411, 0, 7, -0.156784057617188, -0.156784057617188, None, 
2.873046875, -389, 2, 7, -0.148391723632813, -0.148391723632813, None, 
2.875, -355, 0, 7, -0.135421752929688, -0.135421752929688, None, 
2.876953125, -306, 0, 7, -0.116729736328125, -0.116729736328125, None, 
2.87890625, -244, 0, 7, -0.09307861328125, -0.09307861328125, None, 
2.880859375, -153, 0, 7, -0.0583648681640625, -0.0583648681640625, None, 
2.8828125, -45, 0, 7, -0.0171661376953125, -0.0171661376953125, None, 
2.884765625, 79, 0, 7, 0.0301361083984375, 0.0301361083984375, None, 
2.88671875, 212, 0, 7, 0.08087158203125, 0.08087158203125, None, 
2.888671875, 346, 0, 7, 0.131988525390625, 0.131988525390625, None, 
2.890625, 469, 0, 7, 0.178909301757813, 0.178909301757813, None, 
2.892578125, 567, 0, 7, 0.216293334960938, 0.216293334960938, None, 
2.89453125, 619, 0, 7, 0.236129760742188, 0.236129760742188, None, 
2.896484375, 604, 0, 7, 0.23040771484375, 0.23040771484375, None, 
2.8984375, 527, 0, 7, 0.201034545898438, 0.201034545898438, None, 
2.900390625, 385, 0, 7, 0.146865844726563, 0.146865844726563, None, 
2.90234375, 189, 0, 7, 0.0720977783203125, 0.0720977783203125, None, 
2.904296875, -22, 2, 7, -0.008392333984375, -0.008392333984375, None, 
2.90625, -229, 0, 7, -0.0873565673828125, -0.0873565673828125, None, 
2.908203125, -417, 0, 7, -0.159072875976563, -0.159072875976563, None, 
2.91015625, -557, 0, 7, -0.212478637695313, -0.212478637695313, None, 
2.912109375, -653, 0, 7, -0.249099731445313, -0.249099731445313, None, 
2.9140625, -710, 0, 7, -0.270843505859375, -0.270843505859375, None, 
2.916015625, -729, 0, 7, -0.278091430664063, -0.278091430664063, None, 
2.91796875, -722, 0, 7, -0.275421142578125, -0.275421142578125, None, 
2.919921875, -700, 0, 7, -0.26702880859375, -0.26702880859375, None, 
2.921875, -672, 0, 7, -0.25634765625, -0.25634765625, None, 
2.923828125, -636, 0, 7, -0.24261474609375, -0.24261474609375, None, 
2.92578125, -594, 0, 7, -0.226593017578125, -0.226593017578125, None, 
2.927734375, -547, 0, 7, -0.208663940429688, -0.208663940429688, None, 
2.9296875, -506, 0, 7, -0.193023681640625, -0.193023681640625, None, 
2.931640625, -468, 0, 7, -0.17852783203125, -0.17852783203125, None, 
2.93359375, -437, 0, 7, -0.166702270507813, -0.166702270507813, None, 
2.935546875, -416, 2, 7, -0.15869140625, -0.15869140625, None, 
2.9375, -410, 0, 7, -0.156402587890625, -0.156402587890625, None, 
2.939453125, -408, 0, 7, -0.1556396484375, -0.1556396484375, None, 
2.94140625, -402, 0, 7, -0.153350830078125, -0.153350830078125, None, 
2.943359375, -403, 0, 7, -0.153732299804688, -0.153732299804688, None, 
2.9453125, -416, 0, 7, -0.15869140625, -0.15869140625, None, 
2.947265625, -419, 0, 7, -0.159835815429688, -0.159835815429688, None, 
2.94921875, -412, 0, 7, -0.15716552734375, -0.15716552734375, None, 
2.951171875, -408, 0, 7, -0.1556396484375, -0.1556396484375, None, 
2.953125, -405, 0, 7, -0.154495239257813, -0.154495239257813, None, 
2.955078125, -399, 0, 7, -0.152206420898438, -0.152206420898438, None, 
2.95703125, -387, 0, 7, -0.147628784179688, -0.147628784179688, None, 
2.958984375, -373, 0, 7, -0.142288208007813, -0.142288208007813, None, 
2.9609375, -369, 0, 7, -0.140762329101563, -0.140762329101563, None, 
2.962890625, -363, 0, 7, -0.138473510742188, -0.138473510742188, None, 
2.96484375, -355, 0, 7, -0.135421752929688, -0.135421752929688, None, 
2.966796875, -361, 2, 7, -0.137710571289063, -0.137710571289063, None, 
2.96875, -370, 0, 7, -0.141143798828125, -0.141143798828125, None, 
2.970703125, -365, 0, 7, -0.139236450195313, -0.139236450195313, None, 
2.97265625, -357, 0, 7, -0.136184692382813, -0.136184692382813, None, 
2.974609375, -357, 0, 7, -0.136184692382813, -0.136184692382813, None, 
2.9765625, -358, 0, 7, -0.136566162109375, -0.136566162109375, None, 
2.978515625, -357, 0, 7, -0.136184692382813, -0.136184692382813, None, 
2.98046875, -357, 0, 7, -0.136184692382813, -0.136184692382813, None, 
2.982421875, -358, 0, 7, -0.136566162109375, -0.136566162109375, None, 
2.984375, -365, 0, 7, -0.139236450195313, -0.139236450195313, None, 
2.986328125, -358, 0, 7, -0.136566162109375, -0.136566162109375, None, 
2.98828125, -344, 0, 7, -0.1312255859375, -0.1312255859375, None, 
2.990234375, -347, 0, 7, -0.132369995117188, -0.132369995117188, None, 
2.9921875, -342, 0, 7, -0.130462646484375, -0.130462646484375, None, 
2.994140625, -333, 0, 7, -0.127029418945313, -0.127029418945313, None, 
2.99609375, -342, 0, 7, -0.130462646484375, -0.130462646484375, None, 
2.998046875, -346, 2, 7, -0.131988525390625, -0.131988525390625, None, 
3, -346, 0, 7, -0.131988525390625, -0.131988525390625, None, 
3.001953125, -345, 0, 7, -0.131607055664063, -0.131607055664063, None, 
3.00390625, -343, 0, 7, -0.130844116210938, -0.130844116210938, None, 
3.005859375, -336, 0, 7, -0.128173828125, -0.128173828125, None, 
3.0078125, -333, 0, 7, -0.127029418945313, -0.127029418945313, None, 
3.009765625, -331, 0, 7, -0.126266479492188, -0.126266479492188, None, 
3.01171875, -332, 0, 7, -0.12664794921875, -0.12664794921875, None, 
3.013671875, -342, 0, 7, -0.130462646484375, -0.130462646484375, None, 
3.015625, -343, 0, 7, -0.130844116210938, -0.130844116210938, None, 
3.017578125, -351, 0, 7, -0.133895874023438, -0.133895874023438, None, 
3.01953125, -360, 0, 7, -0.1373291015625, -0.1373291015625, None, 
3.021484375, -355, 0, 7, -0.135421752929688, -0.135421752929688, None, 
3.0234375, -356, 0, 7, -0.13580322265625, -0.13580322265625, None, 
3.025390625, -360, 0, 7, -0.1373291015625, -0.1373291015625, None, 
3.02734375, -360, 0, 7, -0.1373291015625, -0.1373291015625, None, 
3.029296875, -352, 2, 7, -0.13427734375, -0.13427734375, None, 
3.03125, -342, 0, 7, -0.130462646484375, -0.130462646484375, None, 
3.033203125, -322, 0, 7, -0.122833251953125, -0.122833251953125, None, 
3.03515625, -308, 0, 7, -0.11749267578125, -0.11749267578125, None, 
3.037109375, -298, 0, 7, -0.113677978515625, -0.113677978515625, None, 
3.0390625, -295, 0, 7, -0.112533569335938, -0.112533569335938, None, 
3.041015625, -298, 0, 7, -0.113677978515625, -0.113677978515625, None, 
3.04296875, -301, 0, 7, -0.114822387695313, -0.114822387695313, None, 
3.044921875, -306, 0, 7, -0.116729736328125, -0.116729736328125, None, 
3.046875, -316, 0, 7, -0.12054443359375, -0.12054443359375, None, 
3.048828125, -318, 0, 7, -0.121307373046875, -0.121307373046875, None, 
3.05078125, -320, 0, 7, -0.1220703125, -0.1220703125, None, 
3.052734375, -319, 0, 7, -0.121688842773438, -0.121688842773438, None, 
3.0546875, -307, 0, 7, -0.117111206054688, -0.117111206054688, None, 
3.056640625, -297, 0, 7, -0.113296508789063, -0.113296508789063, None, 
3.05859375, -292, 0, 7, -0.11138916015625, -0.11138916015625, None, 
3.060546875, -291, 2, 7, -0.111007690429688, -0.111007690429688, None, 
3.0625, -283, 0, 7, -0.107955932617188, -0.107955932617188, None, 
3.064453125, -277, 0, 7, -0.105667114257813, -0.105667114257813, None, 
3.06640625, -278, 0, 7, -0.106048583984375, -0.106048583984375, None, 
3.068359375, -281, 0, 7, -0.107192993164063, -0.107192993164063, None, 
3.0703125, -282, 0, 7, -0.107574462890625, -0.107574462890625, None, 
3.072265625, -286, 0, 7, -0.109100341796875, -0.109100341796875, None, 
3.07421875, -285, 0, 7, -0.108718872070313, -0.108718872070313, None, 
3.076171875, -277, 0, 7, -0.105667114257813, -0.105667114257813, None, 
3.078125, -267, 0, 7, -0.101852416992188, -0.101852416992188, None, 
3.080078125, -260, 0, 7, -0.09918212890625, -0.09918212890625, None, 
3.08203125, -257, 0, 7, -0.0980377197265625, -0.0980377197265625, None, 
3.083984375, -253, 0, 7, -0.0965118408203125, -0.0965118408203125, None, 
3.0859375, -244, 0, 7, -0.09307861328125, -0.09307861328125, None, 
3.087890625, -245, 0, 7, -0.0934600830078125, -0.0934600830078125, None, 
3.08984375, -248, 0, 7, -0.0946044921875, -0.0946044921875, None, 
3.091796875, -241, 2, 7, -0.0919342041015625, -0.0919342041015625, None, 
3.09375, -237, 0, 7, -0.0904083251953125, -0.0904083251953125, None, 
3.095703125, -233, 0, 7, -0.0888824462890625, -0.0888824462890625, None, 
3.09765625, -228, 0, 7, -0.08697509765625, -0.08697509765625, None, 
3.099609375, -222, 0, 7, -0.084686279296875, -0.084686279296875, None, 
3.1015625, -223, 0, 7, -0.0850677490234375, -0.0850677490234375, None, 
3.103515625, -224, 0, 7, -0.08544921875, -0.08544921875, None, 
3.10546875, -233, 0, 7, -0.0888824462890625, -0.0888824462890625, None, 
3.107421875, -232, 0, 7, -0.0885009765625, -0.0885009765625, None, 
3.109375, -230, 0, 7, -0.087738037109375, -0.087738037109375, None, 
3.111328125, -224, 0, 7, -0.08544921875, -0.08544921875, None, 
3.11328125, -213, 0, 7, -0.0812530517578125, -0.0812530517578125, None, 
3.115234375, -196, 0, 7, -0.07476806640625, -0.07476806640625, None, 
3.1171875, -181, 0, 7, -0.0690460205078125, -0.0690460205078125, None, 
3.119140625, -167, 0, 7, -0.0637054443359375, -0.0637054443359375, None, 
3.12109375, -159, 0, 7, -0.0606536865234375, -0.0606536865234375, None, 
3.123046875, -152, 2, 7, -0.0579833984375, -0.0579833984375, None, 
3.125, -149, 0, 7, -0.0568389892578125, -0.0568389892578125, None, 
3.126953125, -149, 0, 7, -0.0568389892578125, -0.0568389892578125, None, 
3.12890625, -158, 0, 7, -0.060272216796875, -0.060272216796875, None, 
3.130859375, -159, 0, 7, -0.0606536865234375, -0.0606536865234375, None, 
3.1328125, -161, 0, 7, -0.0614166259765625, -0.0614166259765625, None, 
3.134765625, -149, 0, 7, -0.0568389892578125, -0.0568389892578125, None, 
3.13671875, -140, 0, 7, -0.05340576171875, -0.05340576171875, None, 
3.138671875, -127, 0, 7, -0.0484466552734375, -0.0484466552734375, None, 
3.140625, -111, 0, 7, -0.0423431396484375, -0.0423431396484375, None, 
3.142578125, -102, 0, 7, -0.038909912109375, -0.038909912109375, None, 
3.14453125, -99, 0, 7, -0.0377655029296875, -0.0377655029296875, None, 
3.146484375, -97, 0, 7, -0.0370025634765625, -0.0370025634765625, None, 
3.1484375, -105, 0, 7, -0.0400543212890625, -0.0400543212890625, None, 
3.150390625, -121, 0, 7, -0.0461578369140625, -0.0461578369140625, None, 
3.15234375, -132, 0, 7, -0.05035400390625, -0.05035400390625, None, 
3.154296875, -130, 2, 7, -0.049591064453125, -0.049591064453125, None, 
3.15625, -127, 0, 7, -0.0484466552734375, -0.0484466552734375, None, 
3.158203125, -112, 0, 7, -0.042724609375, -0.042724609375, None, 
3.16015625, -98, 0, 7, -0.037384033203125, -0.037384033203125, None, 
3.162109375, -84, 0, 7, -0.03204345703125, -0.03204345703125, None, 
3.1640625, -74, 0, 7, -0.028228759765625, -0.028228759765625, None, 
3.166015625, -70, 0, 7, -0.026702880859375, -0.026702880859375, None, 
3.16796875, -71, 0, 7, -0.0270843505859375, -0.0270843505859375, None, 
3.169921875, -76, 0, 7, -0.02899169921875, -0.02899169921875, None, 
3.171875, -88, 0, 7, -0.0335693359375, -0.0335693359375, None, 
3.173828125, -98, 0, 7, -0.037384033203125, -0.037384033203125, None, 
3.17578125, -98, 0, 7, -0.037384033203125, -0.037384033203125, None, 
3.177734375, -103, 0, 7, -0.0392913818359375, -0.0392913818359375, None, 
3.1796875, -105, 0, 7, -0.0400543212890625, -0.0400543212890625, None, 
3.181640625, -100, 0, 7, -0.03814697265625, -0.03814697265625, None, 
3.18359375, -98, 0, 7, -0.037384033203125, -0.037384033203125, None, 
3.185546875, -101, 2, 7, -0.0385284423828125, -0.0385284423828125, None, 
3.1875, -107, 0, 7, -0.0408172607421875, -0.0408172607421875, None, 
3.189453125, -112, 0, 7, -0.042724609375, -0.042724609375, None, 
3.19140625, -117, 0, 7, -0.0446319580078125, -0.0446319580078125, None, 
3.193359375, -128, 0, 7, -0.048828125, -0.048828125, None, 
3.1953125, -139, 0, 7, -0.0530242919921875, -0.0530242919921875, None, 
3.197265625, -149, 0, 7, -0.0568389892578125, -0.0568389892578125, None, 
3.19921875, -153, 0, 7, -0.0583648681640625, -0.0583648681640625, None, 
3.201171875, -166, 0, 7, -0.063323974609375, -0.063323974609375, None, 
3.203125, -175, 0, 7, -0.0667572021484375, -0.0667572021484375, None, 
3.205078125, -182, 0, 7, -0.069427490234375, -0.069427490234375, None, 
3.20703125, -193, 0, 7, -0.0736236572265625, -0.0736236572265625, None, 
3.208984375, -208, 0, 7, -0.079345703125, -0.079345703125, None, 
3.2109375, -213, 0, 7, -0.0812530517578125, -0.0812530517578125, None, 
3.212890625, -219, 0, 7, -0.0835418701171875, -0.0835418701171875, None, 
3.21484375, -221, 0, 7, -0.0843048095703125, -0.0843048095703125, None, 
3.216796875, -223, 2, 7, -0.0850677490234375, -0.0850677490234375, None, 
3.21875, -225, 0, 7, -0.0858306884765625, -0.0858306884765625, None, 
3.220703125, -228, 0, 7, -0.08697509765625, -0.08697509765625, None, 
3.22265625, -225, 0, 7, -0.0858306884765625, -0.0858306884765625, None, 
3.224609375, -226, 0, 7, -0.086212158203125, -0.086212158203125, None, 
3.2265625, -230, 0, 7, -0.087738037109375, -0.087738037109375, None, 
3.228515625, -228, 0, 7, -0.08697509765625, -0.08697509765625, None, 
3.23046875, -216, 0, 7, -0.0823974609375, -0.0823974609375, None, 
3.232421875, -213, 0, 7, -0.0812530517578125, -0.0812530517578125, None, 
3.234375, -215, 0, 7, -0.0820159912109375, -0.0820159912109375, None, 
3.236328125, -220, 0, 7, -0.08392333984375, -0.08392333984375, None, 
3.23828125, -229, 0, 7, -0.0873565673828125, -0.0873565673828125, None, 
3.240234375, -242, 0, 7, -0.092315673828125, -0.092315673828125, None, 
3.2421875, -252, 0, 7, -0.09613037109375, -0.09613037109375, None, 
3.244140625, -261, 0, 7, -0.0995635986328125, -0.0995635986328125, None, 
3.24609375, -263, 0, 7, -0.100326538085938, -0.100326538085938, None, 
3.248046875, -258, 2, 7, -0.098419189453125, -0.098419189453125, None, 
3.25, -257, 0, 7, -0.0980377197265625, -0.0980377197265625, None, 
3.251953125, -253, 0, 7, -0.0965118408203125, -0.0965118408203125, None, 
3.25390625, -246, 0, 7, -0.093841552734375, -0.093841552734375, None, 
3.255859375, -243, 0, 7, -0.0926971435546875, -0.0926971435546875, None, 
3.2578125, -246, 0, 7, -0.093841552734375, -0.093841552734375, None, 
3.259765625, -242, 0, 7, -0.092315673828125, -0.092315673828125, None, 
3.26171875, -236, 0, 7, -0.09002685546875, -0.09002685546875, None, 
3.263671875, -229, 0, 7, -0.0873565673828125, -0.0873565673828125, None, 
3.265625, -219, 0, 7, -0.0835418701171875, -0.0835418701171875, None, 
3.267578125, -218, 0, 7, -0.083160400390625, -0.083160400390625, None, 
3.26953125, -225, 0, 7, -0.0858306884765625, -0.0858306884765625, None, 
3.271484375, -228, 0, 7, -0.08697509765625, -0.08697509765625, None, 
3.2734375, -239, 0, 7, -0.0911712646484375, -0.0911712646484375, None, 
3.275390625, -253, 0, 7, -0.0965118408203125, -0.0965118408203125, None, 
3.27734375, -255, 0, 7, -0.0972747802734375, -0.0972747802734375, None, 
3.279296875, -257, 2, 7, -0.0980377197265625, -0.0980377197265625, None, 
3.28125, -256, 0, 7, -0.09765625, -0.09765625, None, 
3.283203125, -255, 0, 7, -0.0972747802734375, -0.0972747802734375, None, 
3.28515625, -254, 0, 7, -0.096893310546875, -0.096893310546875, None, 
3.287109375, -258, 0, 7, -0.098419189453125, -0.098419189453125, None, 
3.2890625, -259, 0, 7, -0.0988006591796875, -0.0988006591796875, None, 
3.291015625, -258, 0, 7, -0.098419189453125, -0.098419189453125, None, 
3.29296875, -252, 0, 7, -0.09613037109375, -0.09613037109375, None, 
3.294921875, -242, 0, 7, -0.092315673828125, -0.092315673828125, None, 
3.296875, -227, 0, 7, -0.0865936279296875, -0.0865936279296875, None, 
3.298828125, -218, 0, 7, -0.083160400390625, -0.083160400390625, None, 
3.30078125, -204, 0, 7, -0.07781982421875, -0.07781982421875, None, 
3.302734375, -201, 0, 7, -0.0766754150390625, -0.0766754150390625, None, 
3.3046875, -203, 0, 7, -0.0774383544921875, -0.0774383544921875, None, 
3.306640625, -211, 0, 7, -0.0804901123046875, -0.0804901123046875, None, 
3.30859375, -217, 0, 7, -0.0827789306640625, -0.0827789306640625, None, 
3.310546875, -222, 2, 7, -0.084686279296875, -0.084686279296875, None, 
3.3125, -222, 0, 7, -0.084686279296875, -0.084686279296875, None, 
3.314453125, -224, 0, 7, -0.08544921875, -0.08544921875, None, 
3.31640625, -229, 0, 7, -0.0873565673828125, -0.0873565673828125, None, 
3.318359375, -239, 0, 7, -0.0911712646484375, -0.0911712646484375, None, 
3.3203125, -252, 0, 7, -0.09613037109375, -0.09613037109375, None, 
